# #Tue Mar 25 02:42:11 GMT 2014
# CAS\ REGISTRY\ NO=Default
# CAS\ REGISTRY\ NO\tDataType=S
# DATA\ TYPE=INFRARED SPECTRUM
# DATA\ TYPE\tDataType=S
# DATE=7/3/2014
# DATE\tDataType=S
# DELTAX=-7.7143162
# DELTAX\tDataType=S
# FIRSTX=9990.0394
# FIRSTX\tDataType=S
# FIRSTY=0.16578278
# FIRSTY\tDataType=S
# Format=NIR
# Format\tDataType=S
# Insert\ Timestamp=2014-03-25 02\:42\:11
# Insert\ Timestamp\tDataType=S
# Instrument=Bruker
# Instrument\tDataType=S
# JCAMP-DX=4.24
# JCAMP-DX\tDataType=S
# LASTX=3749.1577
# LASTX\tDataType=S
# MAXY=0.59531659
# MAXY\tDataType=S
# MINY=0.13794988
# MINY\tDataType=S
# MOLFORM=Bruker
# MOLFORM\tDataType=S
# MW=100000gn13
# MW\tDataType=S
# NPOINTS=810
# NPOINTS\tDataType=S
# ORIGIN=Default
# ORIGIN\tDataType=S
# Parent\ ID=-1
# RESOLUTION=16
# RESOLUTION\tDataType=S
# SAMPLING\ PROCEDURE=
# SAMPLING\ PROCEDURE\tDataType=S
# Sample\ ID=100000GN13
# Sample\ ID\tDataType=S
# Source=/storm/research/backup/amx/data/2014-03-19/4 dale/bruker converted to JCAMPDX/100000gn13_0.dx
# Source\tDataType=S
# TITLE=Bruker
# TITLE\tDataType=S
# XFACTOR=1
# XFACTOR\tDataType=S
# XUNITS=1/CM
# XUNITS\tDataType=S
# XYDATA=(X++(Y..Y))
# XYDATA\tDataType=S
# YFACTOR=5.5443178e-010
# YFACTOR\tDataType=S
# YUNITS=ABSORBANCE
# YUNITS\tDataType=S
# casregistryno=Default
# casregistryno\tDataType=S
# date=7/3/2014
# date\tDataType=S
# deltax=-7.7143162
# deltax\tDataType=S
# maxy=0.59531659
# maxy\tDataType=S
# miny=0.13794988
# miny\tDataType=S
# molform=Bruker
# molform\tDataType=S
# mw=100000gn13
# mw\tDataType=S
# origin=Default
# origin\tDataType=S
# resolution=16
# resolution\tDataType=S
# samplingprocedure=
# samplingprocedure\tDataType=S
# title=Bruker
# title\tDataType=S
waveno,amplitude
3749.1577,0.5253234
3756.872,0.5222584
3764.5864,0.5202103
3772.3005,0.5180779
3780.015,0.51584274
3787.7292,0.5137177
3795.4436,0.5113274
3803.158,0.50916535
3810.8723,0.5079815
3818.5864,0.5072314
3826.3008,0.50689024
3834.0151,0.50738794
3841.7295,0.50889105
3849.4438,0.5112637
3857.1582,0.5142033
3864.8726,0.5177616
3872.5867,0.5218838
3880.301,0.52620345
3888.0154,0.5302903
3895.7297,0.5345527
3903.444,0.539934
3911.1584,0.54556805
3918.8726,0.5503599
3926.587,0.5550056
3934.3013,0.5598108
3942.0156,0.56439066
3949.73,0.5689443
3957.4443,0.57356936
3965.1584,0.57806355
3972.8728,0.5823134
3980.5872,0.5862652
3988.3015,0.58973753
3996.0159,0.592585
4003.7302,0.5945865
4011.4443,0.5953166
4019.1587,0.5944144
4026.873,0.5917106
4034.5874,0.58741045
4042.3018,0.5818632
4050.016,0.5754235
4057.7302,0.5683109
4065.4446,0.5606022
4073.159,0.55256027
4080.8733,0.5446195
4088.5876,0.53710175
4096.302,0.52996397
4104.016,0.5230832
4111.7305,0.516676
4119.445,0.5110384
4127.159,0.50630665
4134.8735,0.5025495
4142.588,0.49969625
4150.3022,0.4975348
4158.0166,0.4959268
4165.731,0.49496362
4173.4453,0.49469543
4181.159,0.49493045
4188.8735,0.49539715
4196.588,0.49598342
4204.3022,0.49680117
4212.0166,0.49791113
4219.731,0.49919033
4227.4453,0.500582
4235.1597,0.5024435
4242.874,0.5050503
4250.5884,0.5075627
4258.3027,0.50870836
4266.017,0.5085019
4273.731,0.50793374
4281.4453,0.50754434
4289.1597,0.50728524
4296.874,0.50708514
4304.5884,0.50739557
4312.3027,0.5088379
4320.017,0.510506
4327.7314,0.510293
4335.446,0.5076377
4343.16,0.5035885
4350.8745,0.4989967
4358.589,0.49461535
4366.303,0.49129206
4374.017,0.489283
4381.7314,0.48813748
4389.446,0.48708832
4397.16,0.48532295
4404.8745,0.4822
4412.589,0.4775886
4420.303,0.4718076
4428.0176,0.46518463
4435.732,0.45789412
4443.4463,0.45010448
4451.1606,0.4421607
4458.875,0.43454057
4466.589,0.42771026
4474.303,0.4220511
4482.0176,0.4177894
4489.732,0.41495404
4497.4463,0.4133861
4505.1606,0.41287306
4512.875,0.41316953
4520.5894,0.41401964
4528.3037,0.41524324
4536.018,0.41671365
4543.7324,0.41836587
4551.447,0.42017844
4559.1606,0.42216444
4566.875,0.42429072
4574.5894,0.4264572
4582.3037,0.42858487
4590.018,0.43066964
4597.7324,0.43277228
4605.447,0.43488103
4613.161,0.4368982
4620.8755,0.43873215
4628.59,0.440369
4636.304,0.44186592
4644.0186,0.44330293
4651.733,0.44475916
4659.447,0.44620606
4667.161,0.4474805
4674.8755,0.44842902
4682.59,0.44907045
4690.304,0.44950724
4698.0186,0.4497833
4705.733,0.44988146
4713.4473,0.44973364
4721.1616,0.4492804
4728.876,0.4484879
4736.5903,0.44736674
4744.3047,0.445938
4752.0186,0.444217
4759.733,0.44224447
4767.4473,0.44007483
4775.1616,0.4377744
4782.876,0.4353587
4790.5903,0.43282673
4798.3047,0.4301925
4806.019,0.4274124
4813.7334,0.42437267
4821.4478,0.4209843
4829.162,0.41727865
4836.8765,0.41329592
4844.591,0.40903643
4852.3047,0.40448096
4860.019,0.39955735
4867.7334,0.39420167
4875.4478,0.38846743
4883.162,0.38253927
4890.8765,0.37661847
4898.591,0.37087455
4906.305,0.3654278
4914.0195,0.36035168
4921.734,0.35571206
4929.448,0.3515741
4937.1626,0.34800464
4944.8765,0.34503
4952.591,0.34265766
4960.305,0.34090316
4968.0195,0.33975193
4975.734,0.33915102
4983.448,0.33903185
4991.1626,0.33936673
4998.877,0.3401339
5006.5913,0.34126893
5014.3057,0.34268597
5022.02,0.3443267
5029.7344,0.34615186
5037.448,0.34809688
5045.1626,0.3501391
5052.877,0.35226667
5060.5913,0.3544315
5068.3057,0.3565958
5076.02,0.35875648
5083.7344,0.36092404
5091.4487,0.36311188
5099.163,0.3653392
5106.8774,0.36756048
5114.592,0.36973324
5122.306,0.37181655
5130.0205,0.3737153
5137.7344,0.3753438
5145.4487,0.37662616
5153.163,0.37748978
5160.8774,0.37783754
5168.592,0.37754077
5176.306,0.37640646
5184.0205,0.37431294
5191.735,0.37126204
5199.449,0.36716807
5207.1636,0.3620504
5214.878,0.35609
5222.5923,0.34915853
5230.306,0.3412658
5238.0205,0.3326689
5245.735,0.323257
5253.449,0.3134376
5261.1636,0.30389133
5268.878,0.294984
5276.5923,0.28698632
5284.3066,0.27975923
5292.021,0.27349365
5299.7354,0.2684234
5307.4497,0.26435268
5315.164,0.26110503
5322.8784,0.2583556
5330.5923,0.2558636
5338.3066,0.25381613
5346.021,0.25259605
5353.7354,0.2522271
5361.4497,0.25216556
5369.164,0.25193226
5376.8784,0.25162494
5384.593,0.2515325
5392.307,0.25169745
5400.0215,0.25195238
5407.736,0.25227085
5415.45,0.25287926
5423.164,0.25361335
5430.8784,0.25418434
5438.593,0.2547996
5446.307,0.25567767
5454.0215,0.25662023
5461.736,0.25736675
5469.45,0.2580046
5477.1646,0.2586261
5484.879,0.25908604
5492.5933,0.25944743
5500.3076,0.25987867
5508.022,0.26028436
5515.736,0.2605961
5523.45,0.26090828
5531.1646,0.26124412
5538.879,0.26159838
5546.5933,0.2619918
5554.3076,0.26242426
5562.022,0.26287273
5569.7363,0.26331627
5577.4507,0.26376054
5585.165,0.26417464
5592.8794,0.26454484
5600.5938,0.26492512
5608.308,0.26537046
5616.022,0.2658825
5623.7363,0.26644033
5631.4507,0.26705387
5639.165,0.2677315
5646.8794,0.26850665
5654.5938,0.2693559
5662.308,0.27006894
5670.0225,0.2704109
5677.737,0.2703864
5685.451,0.27018982
5693.1655,0.26997066
5700.88,0.2697943
5708.5938,0.2697066
5716.308,0.26975238
5724.0225,0.26992497
5731.737,0.27020213
5739.451,0.27064887
5747.1655,0.27137703
5754.88,0.2724815
5762.594,0.27393308
5770.3086,0.27536044
5778.023,0.2761897
5785.7373,0.27626976
5793.4517,0.27593637
5801.166,0.27544653
5808.88,0.27482727
5816.594,0.27404273
5824.3086,0.27309558
5832.023,0.27204826
5839.7373,0.27098373
5847.4517,0.26997447
5855.166,0.26906154
5862.8804,0.2681984
5870.5947,0.26722956
5878.309,0.2660707
5886.0234,0.26483366
5893.738,0.26367778
5901.4517,0.26260817
5909.166,0.26145676
5916.8804,0.2600661
5924.5947,0.2584194
5932.309,0.2566394
5940.0234,0.25488847
5947.738,0.25323874
5955.452,0.25168094
5963.1665,0.25020027
5970.881,0.24881452
5978.595,0.2475492
5986.3096,0.24640879
5994.0234,0.24538718
6001.738,0.2444573
6009.452,0.24357213
6017.1665,0.24271606
6024.881,0.24192895
6032.595,0.24128252
6040.3096,0.24083374
6048.024,0.2405925
6055.7383,0.24054137
6063.4526,0.24064589
6071.167,0.24084577
6078.8813,0.24109794
6086.5957,0.24140427
6094.3096,0.24178235
6102.024,0.24222818
6109.7383,0.24271262
6117.4526,0.24322358
6125.167,0.24376698
6132.8813,0.24433146
6140.5957,0.24490665
6148.31,0.24550329
6156.0244,0.24612282
6163.739,0.24674155
6171.453,0.24735205
6179.1675,0.24798492
6186.8813,0.24864985
6194.5957,0.24931782
6202.31,0.24997039
6210.0244,0.25062037
6217.739,0.2512979
6225.453,0.25200495
6233.1675,0.25269678
6240.882,0.25334063
6248.596,0.25395575
6256.3105,0.25456244
6264.025,0.2551393
6271.7393,0.2556643
6279.4536,0.25614884
6287.1675,0.25657475
6294.882,0.25687948
6302.596,0.25705644
6310.3105,0.25714546
6318.025,0.2571597
6325.7393,0.25709748
6333.4536,0.25697714
6341.168,0.25680867
6348.8823,0.2565813
6356.5967,0.25631675
6364.311,0.25604615
6372.0254,0.25577876
6379.7393,0.2555105
6387.4536,0.25523204
6395.168,0.25496438
6402.8823,0.25473344
6410.5967,0.25453797
6418.311,0.2543744
6426.0254,0.25426558
6433.7397,0.25422475
6441.454,0.25421208
6449.1685,0.25419816
6456.883,0.25419357
6464.597,0.25419617
6472.311,0.25420305
6480.0254,0.2542121
6487.7397,0.25419414
6495.454,0.25415662
6503.1685,0.25416481
6510.883,0.25423935
6518.597,0.2543454
6526.3115,0.25447267
6534.026,0.25463358
6541.74,0.25483945
6549.4546,0.25511685
6557.169,0.25545698
6564.8833,0.25582686
6572.597,0.2562264
6580.3115,0.25665492
6588.026,0.25711203
6595.74,0.2575995
6603.4546,0.2580865
6611.169,0.25853193
6618.8833,0.2589311
6626.5977,0.2592902
6634.312,0.25960737
6642.0264,0.2599112
6649.7407,0.26021427
6657.455,0.2604761
6665.169,0.26065704
6672.8833,0.26076254
6680.5977,0.26083252
6688.312,0.26089567
6696.0264,0.26094037
6703.7407,0.26093465
6711.455,0.26086518
6719.1694,0.26073894
6726.884,0.2605699
6734.598,0.26037195
6742.3125,0.26014572
6750.027,0.25986752
6757.741,0.2595188
6765.455,0.25913262
6773.1694,0.2587413
6780.884,0.2583119
6788.598,0.25779203
6796.3125,0.25720462
6804.027,0.25660428
6811.741,0.2559975
6819.4556,0.25536013
6827.17,0.25465265
6834.8843,0.25386167
6842.5986,0.25302994
6850.313,0.25219774
6858.027,0.25133732
6865.741,0.2503997
6873.4556,0.24939987
6881.17,0.24836771
6888.8843,0.24729843
6896.5986,0.24619405
6904.313,0.24502842
6912.0273,0.2437471
6919.7417,0.2423837
6927.456,0.24096961
6935.1704,0.23943244
6942.885,0.23775783
6950.5986,0.23601097
6958.313,0.23419115
6966.0273,0.2322125
6973.7417,0.23003764
6981.456,0.22771296
6989.1704,0.22527067
6996.885,0.22269309
7004.599,0.219951
7012.3135,0.21705899
7020.028,0.21406747
7027.742,0.21103789
7035.4565,0.20797488
7043.171,0.20488203
7050.885,0.20188443
7058.599,0.19899923
7066.3135,0.19611368
7074.028,0.19330408
7081.742,0.19066422
7089.4565,0.18808182
7097.171,0.18554643
7104.8853,0.18317918
7112.5996,0.18100357
7120.314,0.17905514
7128.0283,0.17727333
7135.7427,0.17552859
7143.4565,0.17402793
7151.171,0.17284018
7158.8853,0.17167297
7166.5996,0.17060292
7174.314,0.16976501
7182.0283,0.16896822
7189.7427,0.1681168
7197.457,0.16718642
7205.1714,0.16626696
7212.8857,0.16548575
7220.6,0.16470845
7228.3145,0.16390327
7236.0283,0.1633
7243.7427,0.16301464
7251.457,0.16289586
7259.1714,0.16271588
7266.8857,0.16242923
7274.6,0.1620799
7282.3145,0.16159503
7290.029,0.16095798
7297.743,0.16027719
7305.4575,0.15958774
7313.172,0.15886304
7320.886,0.15808497
7328.6006,0.1572069
7336.3145,0.15620765
7344.029,0.1552083
7351.743,0.1543624
7359.4575,0.1535645
7367.172,0.15262893
7374.886,0.15160984
7382.6006,0.15068124
7390.315,0.14988145
7398.0293,0.14910772
7405.7437,0.14828934
7413.458,0.14743337
7421.1724,0.14659408
7428.886,0.1457841
7436.6006,0.14499392
7444.315,0.14426017
7452.0293,0.14357516
7459.7437,0.14294347
7467.458,0.14239836
7475.1724,0.14192688
7482.8867,0.14148478
7490.601,0.14103585
7498.3154,0.14057837
7506.03,0.1401404
7513.744,0.13977014
7521.4585,0.139465
7529.1724,0.13920149
7536.8867,0.13897021
7544.601,0.13875146
7552.3154,0.1385392
7560.03,0.13835315
7567.744,0.13822235
7575.4585,0.13812923
7583.173,0.1380489
7590.887,0.13799389
7598.6016,0.13797781
7606.316,0.13797574
7614.0303,0.13795686
7621.744,0.13794988
7629.4585,0.13797492
7637.173,0.13799812
7644.887,0.13800526
7652.6016,0.13804136
7660.316,0.13811144
7668.0303,0.1381793
7675.7446,0.13826759
7683.459,0.1383727
7691.1733,0.13844723
7698.8877,0.13851337
7706.602,0.13863084
7714.316,0.13878848
7722.0303,0.13895147
7729.7446,0.13911954
7737.459,0.13928032
7745.1733,0.13945091
7752.8877,0.13965334
7760.602,0.13985386
7768.3164,0.14003794
7776.031,0.14022835
7783.745,0.14042227
7791.4595,0.14060347
7799.174,0.14079003
7806.888,0.14097285
7814.602,0.14113028
7822.3164,0.1412764
7830.031,0.14140505
7837.745,0.14151224
7845.4595,0.14161226
7853.174,0.1417053
7860.888,0.14178714
7868.6025,0.1418627
7876.317,0.1419299
7884.0312,0.14201152
7891.7456,0.14213306
7899.46,0.14223778
7907.174,0.14228016
7914.888,0.1423192
7922.6025,0.1424173
7930.317,0.14255935
7938.0312,0.14271009
7945.7456,0.14283769
7953.46,0.1429289
7961.1743,0.14303443
7968.8887,0.14317133
7976.603,0.14331728
7984.3174,0.14349101
7992.0317,0.14368981
7999.746,0.1439044
8007.46,0.14415102
8015.1743,0.1444143
8022.8887,0.14466599
8030.603,0.14489242
8038.3174,0.14510305
8046.0317,0.14535284
8053.746,0.14563507
8061.4604,0.1459018
8069.175,0.14618702
8076.889,0.1464982
8084.6035,0.14681536
8092.318,0.14718078
8100.0317,0.14759487
8107.746,0.1479992
8115.4604,0.14837012
8123.175,0.14872697
8130.889,0.14907365
8138.6035,0.14939521
8146.318,0.14973938
8154.032,0.15017493
8161.7466,0.15063961
8169.461,0.15104362
8177.1753,0.15142131
8184.8896,0.15181695
8192.604,0.15222046
8200.318,0.15260373
8208.032,0.15294129
8215.747,0.15324426
8223.461,0.15354194
8231.176,0.15383187
8238.89,0.1540634
8246.604,0.15421148
8254.318,0.15432742
8262.032,0.15445356
8269.747,0.15456806
8277.461,0.1546362
8285.176,0.15466917
8292.89,0.15469925
8300.6045,0.15470184
8308.318,0.15466484
8316.033,0.15464851
8323.747,0.15465309
8331.462,0.15461831
8339.176,0.15456869
8346.89,0.15458982
8354.6045,0.15466957
8362.318,0.15472431
8370.033,0.15474556
8377.747,0.15474586
8385.462,0.15471163
8393.176,0.15466514
8400.891,0.15460964
8408.6045,0.15451548
8416.319,0.15439764
8424.033,0.15426712
8431.747,0.1540867
8439.462,0.15384382
8447.176,0.15356499
8454.891,0.1532752
8462.6045,0.15297733
8470.319,0.1526684
8478.033,0.15234068
8485.748,0.15198427
8493.462,0.1516185
8501.177,0.15129565
8508.891,0.15105829
8516.605,0.15086204
8524.319,0.15064514
8532.033,0.15042265
8539.748,0.15022194
8547.462,0.15002875
8555.177,0.14979647
8562.891,0.14949757
8570.605,0.14917998
8578.319,0.14891087
8586.034,0.14863755
8593.748,0.14829753
8601.463,0.14795898
8609.177,0.1476325
8616.892,0.14725137
8624.605,0.14683293
8632.319,0.14642243
8640.034,0.1460233
8647.748,0.14565024
8655.463,0.14533933
8663.177,0.14509687
8670.892,0.14487295
8678.605,0.14462951
8686.32,0.14439702
8694.034,0.14420019
8701.749,0.1440055
8709.463,0.14381024
8717.178,0.14368513
8724.892,0.14361577
8732.605,0.14347152
8740.32,0.1432613
8748.034,0.14308298
8755.749,0.1429202
8763.463,0.14277637
8771.178,0.14267252
8778.892,0.14254965
8786.606,0.14240475
8794.32,0.14229903
8802.035,0.1422339
8809.749,0.142176
8817.463,0.1421174
8825.178,0.1420249
8832.892,0.14189795
8840.606,0.14181969
8848.32,0.14178796
8856.035,0.14172941
8863.749,0.14164716
8871.464,0.1415784
8879.178,0.14155288
8886.893,0.14157084
8894.606,0.14158708
8902.321,0.14159738
8910.035,0.14166635
8917.749,0.14182517
8925.464,0.14199784
8933.178,0.14209901
8940.893,0.14214651
8948.606,0.14219727
8956.321,0.14225872
8964.035,0.14232172
8971.75,0.1423773
8979.464,0.14242749
8987.179,0.14254649
8994.893,0.14272699
9002.607,0.1428485
9010.321,0.14291732
9018.035,0.14300162
9025.75,0.1431081
9033.464,0.14323433
9041.179,0.1433713
9048.893,0.14350952
9056.607,0.14364488
9064.321,0.14375101
9072.036,0.14381449
9079.75,0.14391375
9087.465,0.14412151
9095.179,0.14436948
9102.893,0.1445389
9110.607,0.14460737
9118.321,0.14467198
9126.036,0.14482439
9133.75,0.14501575
9141.465,0.1451817
9149.179,0.14533827
9156.894,0.14548722
9164.607,0.1456475
9172.322,0.145798
9180.036,0.14586583
9187.751,0.14592104
9195.465,0.14609215
9203.179,0.14635165
9210.894,0.14658464
9218.607,0.14678247
9226.322,0.1469625
9234.036,0.14706261
9241.751,0.14706832
9249.465,0.14707464
9257.18,0.14721002
9264.894,0.14746739
9272.608,0.14775045
9280.322,0.14798653
9288.037,0.14810705
9295.751,0.14817284
9303.465,0.14828329
9311.18,0.14841373
9318.894,0.14855346
9326.608,0.14870597
9334.322,0.1488379
9342.037,0.14899057
9349.751,0.14923914
9357.466,0.14954846
9365.18,0.14981773
9372.895,0.15002137
9380.608,0.15017399
9388.322,0.15025945
9396.037,0.15029629
9403.751,0.15030943
9411.466,0.15033874
9419.18,0.15047382
9426.895,0.15072387
9434.608,0.15099587
9442.323,0.15120621
9450.037,0.15136936
9457.752,0.15154286
9465.466,0.15171893
9473.181,0.15188451
9480.895,0.15211852
9488.608,0.15245278
9496.323,0.15276873
9504.037,0.15298414
9511.752,0.15311648
9519.466,0.15319423
9527.181,0.1532609
9534.895,0.15341449
9542.609,0.15366402
9550.323,0.15388706
9558.038,0.15410471
9565.752,0.15439524
9573.467,0.15464163
9581.181,0.15478006
9588.895,0.15492655
9596.609,0.15510651
9604.323,0.15525316
9612.038,0.15536232
9619.752,0.15548305
9627.467,0.15567568
9635.181,0.15588419
9642.8955,0.15601976
9650.609,0.15618433
9658.324,0.15645115
9666.038,0.15673475
9673.752,0.15701284
9681.467,0.15730497
9689.181,0.1575677
9696.8955,0.15775746
9704.609,0.15783013
9712.324,0.15780872
9720.038,0.15787417
9727.753,0.15814379
9735.467,0.15851653
9743.182,0.15887715
9750.8955,0.15918963
9758.61,0.15940686
9766.324,0.15954442
9774.038,0.15974137
9781.753,0.16007577
9789.467,0.16048998
9797.182,0.16089277
9804.8955,0.16119203
9812.61,0.16135928
9820.324,0.16148186
9828.039,0.16165012
9835.753,0.16186546
9843.468,0.1621234
9851.182,0.16239515
9858.896,0.16258067
9866.61,0.16271605
9874.324,0.1629127
9882.039,0.16309667
9889.753,0.16322471
9897.468,0.16341133
9905.182,0.1636882
9912.896,0.16399223
9920.61,0.16429171
9928.325,0.16457997
9936.039,0.16477892
9943.754,0.16487369
9951.468,0.1649896
9959.183,0.16512676
9966.896,0.16523327
9974.61,0.16538425
9982.325,0.16559592
9990.039,0.16578278
