# #Tue Mar 25 02:42:11 GMT 2014
# CAS\ REGISTRY\ NO=Default
# CAS\ REGISTRY\ NO\tDataType=S
# DATA\ TYPE=INFRARED SPECTRUM
# DATA\ TYPE\tDataType=S
# DATE=4/3/2014
# DATE\tDataType=S
# DELTAX=-7.7143162
# DELTAX\tDataType=S
# FIRSTX=9990.0394
# FIRSTX\tDataType=S
# FIRSTY=0.12969334
# FIRSTY\tDataType=S
# Format=NIR
# Format\tDataType=S
# Insert\ Timestamp=2014-03-25 02\:42\:11
# Insert\ Timestamp\tDataType=S
# Instrument=Bruker
# Instrument\tDataType=S
# JCAMP-DX=4.24
# JCAMP-DX\tDataType=S
# LASTX=3749.1577
# LASTX\tDataType=S
# MAXY=0.62079275
# MAXY\tDataType=S
# MINY=0.11381347
# MINY\tDataType=S
# MOLFORM=Bruker
# MOLFORM\tDataType=S
# MW=100002gn13
# MW\tDataType=S
# NPOINTS=810
# NPOINTS\tDataType=S
# ORIGIN=Default
# ORIGIN\tDataType=S
# Parent\ ID=-1
# RESOLUTION=16
# RESOLUTION\tDataType=S
# SAMPLING\ PROCEDURE=
# SAMPLING\ PROCEDURE\tDataType=S
# Sample\ ID=100002GN13
# Sample\ ID\tDataType=S
# Source=/storm/research/backup/amx/data/2014-03-19/4 dale/bruker converted to JCAMPDX/100002gn13_0.dx
# Source\tDataType=S
# TITLE=Bruker
# TITLE\tDataType=S
# XFACTOR=1
# XFACTOR\tDataType=S
# XUNITS=1/CM
# XUNITS\tDataType=S
# XYDATA=(X++(Y..Y))
# XYDATA\tDataType=S
# YFACTOR=5.781583e-010
# YFACTOR\tDataType=S
# YUNITS=ABSORBANCE
# YUNITS\tDataType=S
# casregistryno=Default
# casregistryno\tDataType=S
# date=4/3/2014
# date\tDataType=S
# deltax=-7.7143162
# deltax\tDataType=S
# maxy=0.62079275
# maxy\tDataType=S
# miny=0.11381347
# miny\tDataType=S
# molform=Bruker
# molform\tDataType=S
# mw=100002gn13
# mw\tDataType=S
# origin=Default
# origin\tDataType=S
# resolution=16
# resolution\tDataType=S
# samplingprocedure=
# samplingprocedure\tDataType=S
# title=Bruker
# title\tDataType=S
waveno,amplitude
3749.1577,0.55436665
3756.872,0.54959583
3764.5864,0.5459435
3772.3005,0.5423167
3780.015,0.5386358
3787.7292,0.5352529
3795.4436,0.5318456
3803.158,0.5287387
3810.8723,0.52675235
3818.5864,0.52553254
3826.3008,0.5249879
3834.0151,0.5253438
3841.7295,0.526594
3849.4438,0.5286122
3857.1582,0.5310876
3864.8726,0.5339325
3872.5867,0.53722984
3880.301,0.5409696
3888.0154,0.5449581
3895.7297,0.54964215
3903.444,0.55579334
3911.1584,0.5624458
3918.8726,0.5686336
3926.587,0.5748293
3934.3013,0.5808186
3942.0156,0.58616596
3949.73,0.5913072
3957.4443,0.59649503
3965.1584,0.6015957
3972.8728,0.6064247
3980.5872,0.6107941
3988.3015,0.61447984
3996.0159,0.6174583
4003.7302,0.61968476
4011.4443,0.62079275
4019.1587,0.6203531
4026.873,0.61809593
4034.5874,0.61411303
4042.3018,0.608632
4050.016,0.6019387
4057.7302,0.5942656
4065.4446,0.58579797
4073.159,0.5768434
4080.8733,0.567662
4088.5876,0.55846155
4096.302,0.549428
4104.016,0.5406941
4111.7305,0.5323819
4119.445,0.5246091
4127.159,0.51748705
4134.8735,0.51109684
4142.588,0.50546056
4150.3022,0.50057495
4158.0166,0.49649176
4165.731,0.49342713
4173.4453,0.49153382
4181.159,0.49070123
4188.8735,0.4906704
4196.588,0.49121007
4204.3022,0.49216723
4212.0166,0.49331093
4219.731,0.49441263
4227.4453,0.4954633
4235.1597,0.49677235
4242.874,0.49874693
4250.5884,0.50133723
4258.3027,0.5037714
4266.017,0.50528866
4273.731,0.5060575
4281.4453,0.50676465
4289.1597,0.50770605
4296.874,0.5086343
4304.5884,0.50927943
4312.3027,0.50977236
4320.017,0.5102035
4327.7314,0.51002204
4335.446,0.50846654
4343.16,0.50549406
4350.8745,0.50193244
4358.589,0.49890885
4366.303,0.49694908
4374.017,0.49535552
4381.7314,0.4928129
4389.446,0.48867887
4397.16,0.48333532
4404.8745,0.47728556
4412.589,0.47052875
4420.303,0.46281904
4428.0176,0.45404753
4435.732,0.4444265
4443.4463,0.43442273
4451.1606,0.4246538
4458.875,0.41574815
4466.589,0.40816048
4474.303,0.40215895
4482.0176,0.39783236
4489.732,0.39510745
4497.4463,0.3937652
4505.1606,0.39354458
4512.875,0.39418104
4520.5894,0.3954289
4528.3037,0.39712355
4536.018,0.39913902
4543.7324,0.40140808
4551.447,0.40387923
4559.1606,0.4065182
4566.875,0.40930152
4574.5894,0.4121883
4582.3037,0.41515222
4590.018,0.4181729
4597.7324,0.4212765
4605.447,0.4244975
4613.161,0.42779812
4620.8755,0.4310738
4628.59,0.4342825
4636.304,0.43745178
4644.0186,0.44061685
4651.733,0.4438361
4659.447,0.44704208
4667.161,0.45004275
4674.8755,0.4527044
4682.59,0.455012
4690.304,0.45699915
4698.0186,0.45868513
4705.733,0.46007705
4713.4473,0.4611611
4721.1616,0.461915
4728.876,0.46229696
4736.5903,0.46228728
4744.3047,0.46188167
4752.0186,0.46108857
4759.733,0.45995513
4767.4473,0.4584756
4775.1616,0.45663393
4782.876,0.45447764
4790.5903,0.45204598
4798.3047,0.44930148
4806.019,0.44620126
4813.7334,0.4427234
4821.4478,0.438815
4829.162,0.43446693
4836.8765,0.4297359
4844.591,0.42469522
4852.3047,0.419359
4860.019,0.41368306
4867.7334,0.40765455
4875.4478,0.40132096
4883.162,0.39477146
4890.8765,0.38808522
4898.591,0.38136855
4906.305,0.3747529
4914.0195,0.36832967
4921.734,0.36216503
4929.448,0.3563526
4937.1626,0.35103676
4944.8765,0.34634262
4952.591,0.34236237
4960.305,0.33916175
4968.0195,0.33677143
4975.734,0.3351781
4983.448,0.33431667
4991.1626,0.33416098
4998.877,0.3346963
5006.5913,0.33584642
5014.3057,0.33749068
5022.02,0.3395102
5029.7344,0.34185123
5037.448,0.34447992
5045.1626,0.34733453
5052.877,0.35033205
5060.5913,0.35342285
5068.3057,0.3565849
5076.02,0.3598103
5083.7344,0.36311778
5091.4487,0.36652333
5099.163,0.37004042
5106.8774,0.3736369
5114.592,0.37731653
5122.306,0.38107806
5130.0205,0.3848267
5137.7344,0.38844976
5145.4487,0.3917724
5153.163,0.3945999
5160.8774,0.39674607
5168.592,0.3979547
5176.306,0.39787433
5184.0205,0.39631695
5191.735,0.39333436
5199.449,0.38892826
5207.1636,0.3831794
5214.878,0.37634385
5222.5923,0.3683212
5230.306,0.35906518
5238.0205,0.34888974
5245.735,0.33771056
5253.449,0.325847
5261.1636,0.31394595
5268.878,0.30250365
5276.5923,0.2921039
5284.3066,0.28273645
5292.021,0.27457824
5299.7354,0.2679197
5307.4497,0.26255974
5315.164,0.25829598
5322.8784,0.2548249
5330.5923,0.25185493
5338.3066,0.24940148
5346.021,0.2476745
5353.7354,0.24671824
5361.4497,0.24618898
5369.164,0.24571304
5376.8784,0.24530958
5384.593,0.24517825
5392.307,0.24536121
5400.0215,0.24572194
5407.736,0.24623196
5415.45,0.24707548
5423.164,0.24811189
5430.8784,0.24912056
5438.593,0.25022626
5446.307,0.25150135
5454.0215,0.25275487
5461.736,0.25382125
5469.45,0.25479046
5477.1646,0.2556927
5484.879,0.2564064
5492.5933,0.2569944
5500.3076,0.2575967
5508.022,0.25818232
5515.736,0.2587176
5523.45,0.25928167
5531.1646,0.2599107
5538.879,0.26060337
5546.5933,0.26137537
5554.3076,0.26225352
5562.022,0.26321638
5569.7363,0.26417696
5577.4507,0.26510867
5585.165,0.26603252
5592.8794,0.26694477
5600.5938,0.26779538
5608.308,0.26854557
5616.022,0.26918852
5623.7363,0.2697218
5631.4507,0.27014992
5639.165,0.27047098
5646.8794,0.2707433
5654.5938,0.2710391
5662.308,0.2713376
5670.0225,0.27153903
5677.737,0.2715519
5685.451,0.27136654
5693.1655,0.2710479
5700.88,0.27067953
5708.5938,0.2702703
5716.308,0.26980716
5724.0225,0.26933756
5731.737,0.2689417
5739.451,0.2686929
5747.1655,0.26865706
5754.88,0.2689298
5762.594,0.26952732
5770.3086,0.27028856
5778.023,0.270975
5785.7373,0.27140966
5793.4517,0.2715161
5801.166,0.27129304
5808.88,0.27078933
5816.594,0.27005216
5824.3086,0.26914632
5832.023,0.26818493
5839.7373,0.26728386
5847.4517,0.26650426
5855.166,0.26583058
5862.8804,0.2651458
5870.5947,0.26426908
5878.309,0.26314005
5886.0234,0.26183105
5893.738,0.26041675
5901.4517,0.25892645
5909.166,0.2573001
5916.8804,0.25545052
5924.5947,0.25340778
5932.309,0.2513596
5940.0234,0.24951103
5947.738,0.24792443
5955.452,0.24653322
5963.1665,0.24523199
5970.881,0.24397394
5978.595,0.2428018
5986.3096,0.24175367
5994.0234,0.24081472
6001.738,0.23998506
6009.452,0.23927559
6017.1665,0.2386683
6024.881,0.23816822
6032.595,0.2378139
6040.3096,0.2376358
6048.024,0.23764059
6055.7383,0.23781122
6063.4526,0.23811722
6071.167,0.23852858
6078.8813,0.2390305
6086.5957,0.23961142
6094.3096,0.24024802
6102.024,0.24093449
6109.7383,0.24168786
6117.4526,0.2425072
6125.167,0.2433659
6132.8813,0.2442417
6140.5957,0.24514425
6148.31,0.24610014
6156.0244,0.24711256
6163.739,0.24816832
6171.453,0.24925205
6179.1675,0.2503551
6186.8813,0.25148103
6194.5957,0.25263426
6202.31,0.25380456
6210.0244,0.25496674
6217.739,0.25612324
6225.453,0.25730032
6233.1675,0.2584958
6240.882,0.2596798
6248.596,0.26081526
6256.3105,0.26189363
6264.025,0.26293352
6271.7393,0.26393247
6279.4536,0.26486823
6287.1675,0.26570675
6294.882,0.26643533
6302.596,0.2670703
6310.3105,0.2676004
6318.025,0.26803616
6325.7393,0.2684161
6333.4536,0.2687253
6341.168,0.26893958
6348.8823,0.2690924
6356.5967,0.26921907
6364.311,0.26929712
6372.0254,0.26930338
6379.7393,0.26925594
6387.4536,0.2692012
6395.168,0.26917073
6402.8823,0.2691365
6410.5967,0.2690777
6418.311,0.26904243
6426.0254,0.269051
6433.7397,0.26903716
6441.454,0.26897785
6449.1685,0.26892683
6456.883,0.26890415
6464.597,0.26888737
6472.311,0.26886606
6480.0254,0.26887032
6487.7397,0.26892447
6495.454,0.26899758
6503.1685,0.2690545
6510.883,0.26912725
6518.597,0.26927817
6526.3115,0.26949847
6534.026,0.26973888
6541.74,0.2700121
6549.4546,0.27037644
6557.169,0.27082902
6564.8833,0.27131972
6572.597,0.27183533
6580.3115,0.27238
6588.026,0.27296776
6595.74,0.2736205
6603.4546,0.27431127
6611.169,0.27497748
6618.8833,0.27560225
6626.5977,0.27621332
6634.312,0.2768237
6642.0264,0.2774283
6649.7407,0.27802265
6657.455,0.27860513
6665.169,0.279159
6672.8833,0.27968404
6680.5977,0.28019637
6688.312,0.2806861
6696.0264,0.28115484
6703.7407,0.281618
6711.455,0.28205112
6719.1694,0.28242174
6726.884,0.28274128
6734.598,0.283016
6742.3125,0.28323227
6750.027,0.283401
6757.741,0.28354734
6765.455,0.2836739
6773.1694,0.28375196
6780.884,0.28375894
6788.598,0.283696
6796.3125,0.2835837
6804.027,0.2834103
6811.741,0.28312525
6819.4556,0.28274724
6827.17,0.28234124
6834.8843,0.2819112
6842.5986,0.28141382
6850.313,0.28084373
6858.027,0.28022015
6865.741,0.2795333
6873.4556,0.27877268
6881.17,0.27793977
6888.8843,0.27701813
6896.5986,0.27597234
6904.313,0.27478072
6912.0273,0.27344
6919.7417,0.27198488
6927.456,0.2704402
6935.1704,0.26875395
6942.885,0.2668627
6950.5986,0.2647379
6958.313,0.262391
6966.0273,0.25981298
6973.7417,0.2569648
6981.456,0.25383848
6989.1704,0.25047863
6996.885,0.24691013
7004.599,0.24310118
7012.3135,0.2390573
7020.028,0.23479444
7027.742,0.23036148
7035.4565,0.2258478
7043.171,0.22129211
7050.885,0.21675989
7058.599,0.212296
7066.3135,0.20788479
7074.028,0.20359364
7081.742,0.19946356
7089.4565,0.1954093
7097.171,0.19149902
7104.8853,0.18789394
7112.5996,0.18454367
7120.314,0.181424
7128.0283,0.17857441
7135.7427,0.17590402
7143.4565,0.17349468
7151.171,0.17142221
7158.8853,0.16947229
7166.5996,0.16766277
7174.314,0.16612892
7182.0283,0.16474836
7189.7427,0.16342604
7197.457,0.1621116
7205.1714,0.16083626
7212.8857,0.1597033
7220.6,0.15862568
7228.3145,0.1575757
7236.0283,0.15674274
7243.7427,0.15620428
7251.457,0.15581077
7259.1714,0.15539789
7266.8857,0.15493847
7274.6,0.15443224
7282.3145,0.1538048
7290.029,0.15303794
7297.743,0.15219326
7305.4575,0.15131904
7313.172,0.15043718
7320.886,0.14950842
7328.6006,0.14846557
7336.3145,0.14730784
7344.029,0.1461252
7351.743,0.14503458
7359.4575,0.14397623
7367.172,0.14280342
7374.886,0.14154623
7382.6006,0.14034677
7390.315,0.13923445
7398.0293,0.1381039
7405.7437,0.1369018
7413.458,0.13565831
7421.1724,0.13442247
7428.886,0.13319601
7436.6006,0.1319561
7444.315,0.13075659
7452.0293,0.12965943
7459.7437,0.12868091
7467.458,0.12776715
7475.1724,0.126875
7482.8867,0.12604292
7490.601,0.12529874
7498.3154,0.12462108
7506.03,0.12396544
7513.744,0.12333759
7521.4585,0.12277798
7529.1724,0.122312605
7536.8867,0.12190736
7544.601,0.12149948
7552.3154,0.12110874
7560.03,0.12079613
7567.744,0.12055313
7575.4585,0.120314635
7583.173,0.12009781
7590.887,0.11995502
7598.6016,0.11985107
7606.316,0.119737074
7614.0303,0.11963376
7621.744,0.11959148
7629.4585,0.119599424
7637.173,0.11961552
7644.887,0.1196208
7652.6016,0.11961899
7660.316,0.11964992
7668.0303,0.11973919
7675.7446,0.11984629
7683.459,0.11993667
7691.1733,0.1200645
7698.8877,0.12025146
7706.602,0.12041716
7714.316,0.12052299
7722.0303,0.120639786
7729.7446,0.120832674
7737.459,0.12107987
7745.1733,0.121322855
7752.8877,0.121518105
7760.602,0.121704705
7768.3164,0.12193728
7776.031,0.122199304
7783.745,0.12247868
7791.4595,0.12274979
7799.174,0.12297684
7806.888,0.12316923
7814.602,0.12336166
7822.3164,0.123578474
7830.031,0.12379715
7837.745,0.12399121
7845.4595,0.12417904
7853.174,0.12437348
7860.888,0.12454621
7868.6025,0.12469472
7876.317,0.12482827
7884.0312,0.12492624
7891.7456,0.12501502
7899.46,0.12513638
7907.174,0.12525038
7914.888,0.12531532
7922.6025,0.12539557
7930.317,0.1255368
7938.0312,0.12568572
7945.7456,0.12581398
7953.46,0.12593307
7961.1743,0.12604831
7968.8887,0.12618075
7976.603,0.12636602
7984.3174,0.12659632
7992.0317,0.12681739
7999.746,0.12700978
8007.46,0.12720777
8015.1743,0.1274338
8022.8887,0.12767385
8030.603,0.12792407
8038.3174,0.12819794
8046.0317,0.12850827
8053.746,0.12885971
8061.4604,0.12925355
8069.175,0.12967439
8076.889,0.13008654
8084.6035,0.13048197
8092.318,0.13085125
8100.0317,0.13120446
8107.746,0.13160892
8115.4604,0.13208282
8123.175,0.1325817
8130.889,0.13308139
8138.6035,0.13360286
8146.318,0.1341505
8154.032,0.13468996
8161.7466,0.1352314
8169.461,0.13579068
8177.1753,0.13633338
8184.8896,0.13686273
8192.604,0.13741906
8200.318,0.13799296
8208.032,0.13853382
8215.747,0.13900657
8223.461,0.13941458
8231.176,0.13979585
8238.89,0.14018437
8246.604,0.14054254
8254.318,0.1407867
8262.032,0.14092623
8269.747,0.14105108
8277.461,0.14118409
8285.176,0.14128709
8292.89,0.14134693
8300.6045,0.14136292
8308.318,0.1413163
8316.033,0.14121728
8323.747,0.14110707
8331.462,0.1410062
8339.176,0.14092416
8346.89,0.14083228
8354.6045,0.14065617
8362.318,0.14041811
8370.033,0.14020622
8377.747,0.14002475
8385.462,0.13984221
8393.176,0.13961229
8400.891,0.13929959
8408.6045,0.13896345
8416.319,0.13865
8424.033,0.1383002
8431.747,0.13787532
8439.462,0.13743562
8447.176,0.13701601
8454.891,0.13657139
8462.6045,0.13609219
8470.319,0.135598
8478.033,0.13505392
8485.748,0.13449332
8493.462,0.13400063
8501.177,0.13356106
8508.891,0.13313875
8516.605,0.13270402
8524.319,0.13222495
8532.033,0.13171662
8539.748,0.1312258
8547.462,0.13075879
8555.177,0.13025823
8562.891,0.1297245
8570.605,0.12921636
8578.319,0.12876454
8586.034,0.12833461
8593.748,0.12784106
8601.463,0.12725201
8609.177,0.12660003
8616.892,0.12593435
8624.605,0.1253023
8632.319,0.12471055
8640.034,0.124150515
8647.748,0.12361326
8655.463,0.12303821
8663.177,0.12240696
8670.892,0.12181164
8678.605,0.12132077
8686.32,0.1209078
8694.034,0.12048842
8701.749,0.12001644
8709.463,0.11955466
8717.178,0.11917316
8724.892,0.118861735
8732.605,0.11856036
8740.32,0.11823669
8748.034,0.11793
8755.749,0.11765721
8763.463,0.11738152
8771.178,0.11707812
8778.892,0.11675715
8786.606,0.116469376
8794.32,0.11623853
8802.035,0.1160148
8809.749,0.11574793
8817.463,0.11546407
8825.178,0.115223594
8832.892,0.115025826
8840.606,0.11483624
8848.32,0.11463075
8856.035,0.114430964
8863.749,0.11429996
8871.464,0.114228904
8879.178,0.11416385
8886.893,0.11408487
8894.606,0.11399103
8902.321,0.11390667
8910.035,0.113867536
8917.749,0.11389546
8925.464,0.11394967
8933.178,0.113952905
8940.893,0.11388614
8948.606,0.11381347
8956.321,0.113826424
8964.035,0.11396495
8971.75,0.11415237
8979.464,0.11423998
8987.179,0.11422786
8994.893,0.114221804
9002.607,0.11424153
9010.321,0.11426962
9018.035,0.1142874
9025.75,0.11432405
9033.464,0.11444383
9041.179,0.11463267
9048.893,0.11478515
9056.607,0.11482403
9064.321,0.11481412
9072.036,0.11485775
9079.75,0.11497816
9087.465,0.1151318
9095.179,0.115253665
9102.893,0.11533479
9110.607,0.11543307
9118.321,0.115556814
9126.036,0.11565376
9133.75,0.11574914
9141.465,0.115882404
9149.179,0.1160287
9156.894,0.11615335
9164.607,0.116208114
9172.322,0.11618623
9180.036,0.11619116
9187.751,0.11632064
9195.465,0.11654178
9203.179,0.116752945
9210.894,0.11688394
9218.607,0.11696048
9226.322,0.117022164
9234.036,0.11705466
9241.751,0.11710903
9249.465,0.11722508
9257.18,0.11735737
9264.894,0.11748336
9272.608,0.11759011
9280.322,0.117670715
9288.037,0.11774672
9295.751,0.11782443
9303.465,0.11793014
9311.18,0.11809703
9318.894,0.1182597
9326.608,0.11835015
9334.322,0.118409306
9342.037,0.11851896
9349.751,0.11869547
9357.466,0.11885622
9365.18,0.118964024
9372.895,0.11906361
9380.608,0.11918291
9388.322,0.11931177
9396.037,0.11940336
9403.751,0.11944961
9411.466,0.11949545
9419.18,0.1195803
9426.895,0.11973916
9434.608,0.11992725
9442.323,0.120058894
9450.037,0.12015652
9457.752,0.12028407
9465.466,0.12045866
9473.181,0.120659195
9480.895,0.12082348
9488.608,0.12090623
9496.323,0.120974965
9504.037,0.12110186
9511.752,0.1212632
9519.466,0.12143812
9527.181,0.121587865
9534.895,0.12169758
9542.609,0.12180756
9550.323,0.121925145
9558.038,0.122072734
9565.752,0.12223402
9573.467,0.1223091
9581.181,0.122274525
9588.895,0.1222618
9596.609,0.12241211
9604.323,0.12267733
9612.038,0.12290679
9619.752,0.12306461
9627.467,0.123197995
9635.181,0.12333907
9642.8955,0.12345566
9650.609,0.123493016
9658.324,0.123500034
9666.038,0.12358043
9673.752,0.12380083
9681.467,0.12410814
9689.181,0.124290206
9696.8955,0.124262124
9704.609,0.12424093
9712.324,0.124399126
9720.038,0.12464608
9727.753,0.12486409
9735.467,0.12504278
9743.182,0.12523988
9750.8955,0.12548645
9758.61,0.1257314
9766.324,0.12595521
9774.038,0.12613404
9781.753,0.1262447
9789.467,0.12635985
9797.182,0.12652422
9804.8955,0.12670097
9812.61,0.12683313
9820.324,0.12693544
9828.039,0.12712789
9835.753,0.12745373
9843.468,0.12774564
9851.182,0.12785491
9858.896,0.12787458
9866.61,0.12792264
9874.324,0.12798806
9882.039,0.12803806
9889.753,0.12813479
9897.468,0.12837031
9905.182,0.1286806
9912.896,0.12890819
9920.61,0.128951
9928.325,0.12890321
9936.039,0.12895909
9943.754,0.12911385
9951.468,0.12923747
9959.183,0.1293277
9966.896,0.12944867
9974.61,0.12954141
9982.325,0.12959778
9990.039,0.12969334
