--> pclanilIR-out0.cml
#1:
# Absorbance=false
# Absorbance\tDataType=B
# Continuous=true
# Continuous\tDataType=B
# DataClass=XYDATA
# DataClass\tDataType=S
# DataType=IR SPECTRUM
# DataType\tDataType=S
# Date=
# Date\tDataType=S
# Format=NIR
# Format\tDataType=S
# HZtoPPM=false
# HZtoPPM\tDataType=B
# Increasing=true
# Increasing\tDataType=B
# Insert\ Timestamp=2000-01-01 00\:00\:00
# Insert\ Timestamp\tDataType=S
# Instrument=unknown
# Instrument\tDataType=S
# Jcampdx=5.01
# Jcampdx\tDataType=S
# ObservedFreq=1.7976931348623157E308
# ObservedFreq\tDataType=N
# Origin=Chem. Dep`t, UWI, JAMAICA
# Origin\tDataType=S
# Owner=public domain
# Owner\tDataType=S
# Parent\ ID=-1
# Pathlength=na
# Pathlength\tDataType=S
# Sample\ ID=Chem. Dept, UWI, JAMAICA - para-chloroaniline
# Sample\ ID\tDataType=S
# Source=pclanilIR.cml
# Source\tDataType=S
# Time=
# Time\tDataType=S
# Title=para-chloroaniline
# Title\tDataType=S
# Transmittance=true
# Transmittance\tDataType=B
# XFactor=1.7976931348623157E308
# XFactor\tDataType=N
# XUnits=1/CM
# XUnits\tDataType=S
# YFactor=1.0
# YFactor\tDataType=N
# YUnits=TRANSMITTANCE
# YUnits\tDataType=S
waveno,amplitude
399.9996,0.7023125
401.9996,0.7518516
403.9996,0.7818099
405.9996,0.7985473
407.9996,0.7833339
409.9996,0.75548667
411.9996,0.7682082
413.9996,0.82188094
415.9996,0.82460666
417.9996,0.76709425
419.9996,0.81173813
421.9996,0.85664594
423.9996,0.86036867
425.9996,0.8786894
427.9996,0.8802434
429.9996,0.8709215
431.9996,0.86488307
433.9996,0.86725724
435.9996,0.8622743
437.9996,0.8558543
439.9996,0.8574668
441.9996,0.8528647
443.9996,0.86626095
445.9996,0.8741165
447.9996,0.8595478
449.9996,0.83873606
451.9996,0.8270692
453.9996,0.83466095
455.9996,0.8422242
457.9996,0.85034364
459.9996,0.85295236
461.9996,0.8510768
463.9996,0.8434551
465.9996,0.8326091
467.9996,0.819506
469.9996,0.816458
471.9996,0.8188906
473.9996,0.8169857
475.9996,0.8102726
477.9996,0.8068137
479.9996,0.8062859
481.9996,0.8032671
483.9996,0.79793185
485.9996,0.7819853
487.9996,0.76929295
489.9996,0.7667719
491.9996,0.7562191
493.9996,0.73309165
495.9996,0.7100511
497.9996,0.6876561
499.9996,0.6490214
501.9996,0.5786405
503.9996,0.47792053
505.9996,0.37904772
507.9996,0.35037962
509.9996,0.4599522
511.9996,0.6545321
513.9996,0.7883468
515.9996,0.8448037
517.9996,0.8724748
519.9996,0.88062423
521.9996,0.8791587
523.9996,0.87273866
525.9996,0.86881125
527.9996,0.863886
529.9996,0.86136574
531.9996,0.86353445
533.9996,0.8599002
535.9996,0.85485804
537.9996,0.85251313
539.9996,0.8509883
541.9996,0.8543887
543.9996,0.8574668
545.9996,0.85919625
547.9996,0.85177994
549.9996,0.84729475
551.9996,0.8509883
553.9996,0.8581115
555.9996,0.85863924
557.9996,0.8524246
559.9996,0.84738326
561.9996,0.8418426
563.9996,0.8384722
565.9996,0.837329
567.9996,0.834134
569.9996,0.8381198
571.9996,0.8441883
573.9996,0.8425757
575.9996,0.8370651
577.9996,0.84175485
579.9996,0.84624004
581.9996,0.84541917
583.9996,0.84389514
585.9996,0.8412271
587.9996,0.8371528
589.9996,0.83598036
591.9996,0.8349248
593.9996,0.8308505
595.9996,0.8288279
597.9996,0.8304112
599.9996,0.83448553
601.9996,0.82917947
603.9996,0.82407886
605.9996,0.82715696
607.9996,0.8270692
609.9996,0.8225841
611.9996,0.82152855
613.9996,0.8171611
615.9996,0.8077515
617.9996,0.79810804
619.9996,0.78905
621.9996,0.7768262
623.9996,0.76360613
625.9996,0.75020987
627.9996,0.7376053
629.9996,0.7225388
631.9996,0.692639
633.9996,0.6450932
635.9996,0.584005
637.9996,0.52379614
639.9996,0.48425207
641.9996,0.49454102
643.9996,0.6013579
645.9996,0.7785264
647.9996,0.8959846
649.9996,0.93227357
651.9996,0.9380189
653.9996,0.9352347
655.9996,0.9296648
657.9996,0.92479885
659.9996,0.9146569
661.9996,0.9050711
663.9996,0.89991194
665.9996,0.9021399
667.9996,0.89551526
669.9996,0.8868088
671.9996,0.887542
673.9996,0.88543177
675.9996,0.8823829
677.9996,0.88411236
679.9996,0.88531405
681.9996,0.885871
683.9996,0.8829399
685.9996,0.8774
687.9996,0.87364805
689.9996,0.8724748
691.9996,0.86963135
693.9996,0.85919625
695.9996,0.84409976
697.9996,0.82742083
699.9996,0.83155364
701.9996,0.85368556
703.9996,0.8680781
705.9996,0.8704522
707.9996,0.8708046
709.9996,0.872094
711.9996,0.86916286
713.9996,0.8654401
715.9996,0.86626095
717.9996,0.86863506
719.9996,0.8704522
721.9996,0.8695436
723.9996,0.868342
725.9996,0.86617243
727.9996,0.8669056
729.9996,0.87227017
731.9996,0.8752013
733.9996,0.8743804
735.9996,0.8701006
737.9996,0.8687228
739.9996,0.87018836
741.9996,0.8714493
743.9996,0.8681658
745.9996,0.8646192
747.9996,0.86845887
749.9996,0.87309104
751.9996,0.8749374
753.9996,0.8774
755.9996,0.8776931
757.9996,0.8787771
759.9996,0.8776046
761.9996,0.87476116
763.9996,0.8740288
765.9996,0.87235785
767.9996,0.8698952
769.9996,0.8690752
771.9996,0.86552775
773.9996,0.8627136
775.9996,0.86036867
777.9996,0.85998785
779.9996,0.86309516
781.9996,0.8647954
783.9996,0.860281
785.9996,0.8574668
787.9996,0.85421336
789.9996,0.8482918
791.9996,0.84248805
793.9996,0.83554024
795.9996,0.82874024
797.9996,0.8213532
799.9996,0.8138492
801.9996,0.80379486
803.9996,0.7893723
805.9996,0.7671827
807.9996,0.7381915
809.9996,0.70207787
811.9996,0.65236336
813.9996,0.5802238
815.9996,0.47944537
817.9996,0.36767402
819.9996,0.29324803
821.9996,0.2853925
823.9996,0.32833618
825.9996,0.35800052
827.9996,0.3304172
829.9996,0.28049728
831.9996,0.26912355
833.9996,0.33112115
835.9996,0.4621794
837.9996,0.60651696
839.9996,0.71304154
841.9996,0.7801389
843.9996,0.8217924
845.9996,0.8468555
847.9996,0.8624497
849.9996,0.8728271
851.9996,0.8787771
853.9996,0.8845816
855.9996,0.8895938
857.9996,0.89152867
859.9996,0.89311194
861.9996,0.89654076
863.9996,0.898241
865.9996,0.89961886
867.9996,0.90225685
869.9996,0.90571654
871.9996,0.90674204
873.9996,0.90873533
875.9996,0.90976167
877.9996,0.9082368
879.9996,0.90861845
881.9996,0.91172576
883.9996,0.91099256
885.9996,0.90729904
887.9996,0.9032832
889.9996,0.90178835
891.9996,0.9034593
893.9996,0.90486646
895.9996,0.9063612
897.9996,0.90665436
899.9996,0.9060097
901.9996,0.90647817
903.9996,0.90495414
905.9996,0.90375245
907.9996,0.90712285
909.9996,0.90929234
911.9996,0.9101424
913.9996,0.9101424
915.9996,0.91040635
917.9996,0.9072113
919.9996,0.9039278
921.9996,0.9025207
923.9996,0.89850485
925.9996,0.88569564
927.9996,0.8789825
929.9996,0.8879228
931.9996,0.89756703
933.9996,0.8956322
935.9996,0.8931996
937.9996,0.89747936
939.9996,0.9002936
941.9996,0.8995312
943.9996,0.89888644
945.9996,0.89786017
947.9996,0.89709777
949.9996,0.89607227
951.9996,0.895046
953.9996,0.8949583
955.9996,0.8953391
957.9996,0.8946067
959.9996,0.8924664
961.9996,0.8921733
963.9996,0.89179254
965.9996,0.88985765
967.9996,0.8882752
969.9996,0.8881867
971.9996,0.88727814
973.9996,0.8859595
975.9996,0.8829399
977.9996,0.87997955
979.9996,0.8774
981.9996,0.8764029
983.9996,0.87602216
985.9996,0.8752013
987.9996,0.87347186
989.9996,0.87235785
991.9996,0.86998373
993.9996,0.86608475
995.9996,0.85981166
997.9996,0.8500797
999.9996,0.83422166
1001.9996,0.8014492
1003.9996,0.7534057
1005.9996,0.73907083
1007.9996,0.78046125
1009.9996,0.82601374
1011.9996,0.8448914
1013.9996,0.85034364
1015.9996,0.849552
1017.9996,0.84738326
1019.9996,0.8470317
1021.9996,0.8463277
1023.9996,0.84568304
1025.9996,0.8441883
1027.9996,0.845243
1029.9996,0.84606385
1031.9996,0.8458885
1033.9996,0.84445214
1035.9996,0.84389514
1037.9996,0.8415795
1039.9996,0.8407878
1041.9996,0.83935153
1043.9996,0.8370651
1045.9996,0.83234525
1047.9996,0.82557446
1049.9996,0.8163695
1051.9996,0.81182665
1053.9996,0.8175127
1055.9996,0.82874024
1057.9996,0.8365081
1059.9996,0.83855987
1061.9996,0.8365958
1063.9996,0.8329607
1065.9996,0.82970726
1067.9996,0.8233757
1069.9996,0.8172496
1071.9996,0.81557864
1073.9996,0.8144354
1075.9996,0.80742913
1077.9996,0.797668
1079.9996,0.7840379
1081.9996,0.76410466
1083.9996,0.71981233
1085.9996,0.611413
1087.9996,0.45886746
1089.9996,0.42890918
1091.9996,0.5038629
1093.9996,0.5965804
1095.9996,0.75912094
1097.9996,0.8512522
1099.9996,0.85919625
1101.9996,0.85421336
1103.9996,0.84785175
1105.9996,0.84061164
1107.9996,0.8313782
1109.9996,0.817425
1111.9996,0.7978442
1113.9996,0.77591765
1115.9996,0.7602057
1117.9996,0.75844705
1119.9996,0.7689414
1121.9996,0.7792888
1123.9996,0.7844479
1125.9996,0.79004705
1127.9996,0.80180156
1129.9996,0.8209131
1131.9996,0.8382083
1133.9996,0.848468
1135.9996,0.8519854
1137.9996,0.85233694
1139.9996,0.8514284
1141.9996,0.84820414
1143.9996,0.8451553
1145.9996,0.83973235
1147.9996,0.83483714
1149.9996,0.8336939
1151.9996,0.8339578
1153.9996,0.8326091
1155.9996,0.83129054
1157.9996,0.8301473
1159.9996,0.82838786
1161.9996,0.82539827
1163.9996,0.8233757
1165.9996,0.8195945
1167.9996,0.81340915
1169.9996,0.8045565
1171.9996,0.7914241
1173.9996,0.77295727
1175.9996,0.74569625
1177.9996,0.673996
1179.9996,0.55988055
1181.9996,0.50491846
1183.9996,0.5246755
1185.9996,0.6545321
1187.9996,0.8170734
1189.9996,0.8671695
1191.9996,0.8680781
1193.9996,0.8634468
1195.9996,0.85981166
1197.9996,0.85547346
1199.9996,0.8516046
1201.9996,0.8464154
1203.9996,0.84301585
1205.9996,0.8404363
1207.9996,0.8380321
1209.9996,0.83545256
1211.9996,0.83457327
1213.9996,0.8338701
1215.9996,0.8320814
1217.9996,0.82988346
1219.9996,0.8283002
1221.9996,0.8258383
1223.9996,0.8231995
1225.9996,0.82029766
1227.9996,0.81601787
1229.9996,0.8122659
1231.9996,0.80983335
1233.9996,0.80611056
1235.9996,0.8025924
1237.9996,0.8001598
1239.9996,0.79810804
1241.9996,0.7972579
1243.9996,0.7944145
1245.9996,0.79031014
1247.9996,0.7853857
1249.9996,0.7796112
1251.9996,0.77237105
1253.9996,0.764017
1255.9996,0.7551351
1257.9996,0.744553
1259.9996,0.7320946
1261.9996,0.71878684
1263.9996,0.7045112
1265.9996,0.6903818
1267.9996,0.67285275
1269.9996,0.6489337
1271.9996,0.6228744
1273.9996,0.59672654
1275.9996,0.5689086
1277.9996,0.5384818
1279.9996,0.5036283
1281.9996,0.46569753
1283.9996,0.41976345
1285.9996,0.35879216
1287.9996,0.30210066
1289.9996,0.28715116
1291.9996,0.33217585
1293.9996,0.4508065
1295.9996,0.6179199
1297.9996,0.7494775
1299.9996,0.8170734
1301.9996,0.8477641
1303.9996,0.86118954
1305.9996,0.8659971
1307.9996,0.8659971
1309.9996,0.8622743
1311.9996,0.85910857
1313.9996,0.8564705
1315.9996,0.8556789
1317.9996,0.8543887
1319.9996,0.8488196
1321.9996,0.84175485
1323.9996,0.83677197
1325.9996,0.8326091
1327.9996,0.8307628
1329.9996,0.8316421
1331.9996,0.83234525
1333.9996,0.8326091
1335.9996,0.83404547
1337.9996,0.83545256
1339.9996,0.834397
1341.9996,0.83448553
1343.9996,0.83562875
1345.9996,0.835101
1347.9996,0.83343
1349.9996,0.8308505
1351.9996,0.8267177
1353.9996,0.823815
1355.9996,0.8220563
1357.9996,0.8210016
1359.9996,0.8207377
1361.9996,0.8195945
1363.9996,0.816458
1365.9996,0.8168972
1367.9996,0.8181874
1369.9996,0.8176012
1371.9996,0.81601787
1373.9996,0.81420076
1375.9996,0.81182665
1377.9996,0.80974483
1379.9996,0.8069014
1381.9996,0.80068755
1383.9996,0.79321283
1385.9996,0.791688
1387.9996,0.7950884
1389.9996,0.7969056
1391.9996,0.7969056
1393.9996,0.7955285
1395.9996,0.7908379
1397.9996,0.78793603
1399.9996,0.7864997
1401.9996,0.78717357
1403.9996,0.78793603
1405.9996,0.7857965
1407.9996,0.783774
1409.9996,0.7827477
1411.9996,0.78028506
1413.9996,0.7770024
1415.9996,0.7738074
1417.9996,0.7714625
1419.9996,0.76477855
1421.9996,0.76044035
1423.9996,0.7576262
1425.9996,0.7534057
1427.9996,0.74971217
1429.9996,0.7434098
1431.9996,0.73373634
1433.9996,0.72567534
1435.9996,0.71447784
1437.9996,0.6921705
1439.9996,0.6814123
1441.9996,0.6819693
1443.9996,0.69090956
1445.9996,0.7006708
1447.9996,0.70720774
1449.9996,0.7102858
1451.9996,0.70996344
1453.9996,0.70744234
1455.9996,0.7041889
1457.9996,0.6882131
1459.9996,0.6764294
1461.9996,0.66989243
1463.9996,0.66285694
1465.9996,0.6462072
1467.9996,0.6293228
1469.9996,0.6176268
1471.9996,0.6107675
1473.9996,0.60346895
1475.9996,0.5893395
1477.9996,0.564248
1479.9996,0.536987
1481.9996,0.49216688
1483.9996,0.43670627
1485.9996,0.38186193
1487.9996,0.3290393
1489.9996,0.24239032
1491.9996,0.15002443
1493.9996,0.12607536
1495.9996,0.14410293
1497.9996,0.16743656
1499.9996,0.1491451
1501.9996,0.19798107
1503.9996,0.3082568
1505.9996,0.4366186
1507.9996,0.68897474
1509.9996,0.76768047
1511.9996,0.7983719
1513.9996,0.82407886
1515.9996,0.8381198
1517.9996,0.83935153
1519.9996,0.84213567
1521.9996,0.834134
1523.9996,0.82733315
1525.9996,0.82038534
1527.9996,0.81915444
1529.9996,0.82302415
1531.9996,0.8310267
1533.9996,0.8351887
1535.9996,0.834134
1537.9996,0.834397
1539.9996,0.8300588
1541.9996,0.81522626
1543.9996,0.8058467
1545.9996,0.79749256
1547.9996,0.794326
1549.9996,0.7870859
1551.9996,0.7785264
1553.9996,0.77163786
1555.9996,0.7662734
1557.9996,0.7727226
1559.9996,0.7715502
1561.9996,0.7725464
1563.9996,0.7735435
1565.9996,0.77037776
1567.9996,0.76686037
1569.9996,0.7562191
1571.9996,0.7416804
1573.9996,0.7310691
1575.9996,0.7151225
1577.9996,0.7043643
1579.9996,0.7019902
1581.9996,0.6952778
1583.9996,0.68665904
1585.9996,0.67974126
1587.9996,0.6714749
1589.9996,0.6619483
1591.9996,0.6513955
1593.9996,0.6376477
1595.9996,0.616132
1597.9996,0.5889295
1599.9996,0.5611699
1601.9996,0.53162247
1603.9996,0.49342704
1605.9996,0.4481092
1607.9996,0.39323562
1609.9996,0.3267821
1611.9996,0.26302668
1613.9996,0.21424916
1615.9996,0.18191677
1617.9996,0.17722698
1619.9996,0.21125959
1621.9996,0.27032524
1623.9996,0.3901283
1625.9996,0.4952742
1627.9996,0.5651273
1629.9996,0.62706566
1631.9996,0.66103977
1633.9996,0.69047034
1635.9996,0.7242975
1637.9996,0.74971217
1639.9996,0.7583886
1641.9996,0.76943994
1643.9996,0.77969885
1645.9996,0.79303664
1647.9996,0.8114158
1649.9996,0.82029766
1651.9996,0.829268
1653.9996,0.8418426
1655.9996,0.84213567
1657.9996,0.8463277
1659.9996,0.8507244
1661.9996,0.85295236
1663.9996,0.8511645
1665.9996,0.85177994
1667.9996,0.8552096
1669.9996,0.8551219
1671.9996,0.8530409
1673.9996,0.8570267
1675.9996,0.85910857
1677.9996,0.85846305
1679.9996,0.8571152
1681.9996,0.85781837
1683.9996,0.8583754
1685.9996,0.8482918
1687.9996,0.8494643
1689.9996,0.8510768
1691.9996,0.8539495
1693.9996,0.85781837
1695.9996,0.85855156
1697.9996,0.8558543
1699.9996,0.856939
1701.9996,0.85485804
1703.9996,0.856939
1705.9996,0.8572029
1707.9996,0.856382
1709.9996,0.857643
1711.9996,0.8567336
1713.9996,0.8547703
1715.9996,0.85503423
1717.9996,0.85134065
1719.9996,0.84785175
1721.9996,0.8508129
1723.9996,0.8509883
1725.9996,0.8494643
1727.9996,0.8492881
1729.9996,0.8457708
1731.9996,0.84354275
1733.9996,0.84175485
1735.9996,0.8369766
1737.9996,0.84052396
1739.9996,0.8406994
1741.9996,0.83935153
1743.9996,0.8375043
1745.9996,0.8389115
1747.9996,0.8396154
1749.9996,0.8363319
1751.9996,0.8321699
1753.9996,0.8329607
1755.9996,0.8336939
1757.9996,0.82917947
1759.9996,0.82847637
1761.9996,0.829268
1763.9996,0.82874024
1765.9996,0.83155364
1767.9996,0.8351887
1769.9996,0.83668345
1771.9996,0.8364196
1773.9996,0.837329
1775.9996,0.83982
1777.9996,0.8418426
1779.9996,0.84301585
1781.9996,0.8418426
1783.9996,0.8418426
1785.9996,0.8399962
1787.9996,0.8384722
1789.9996,0.8389115
1791.9996,0.838296
1793.9996,0.8365081
1795.9996,0.83580416
1797.9996,0.83554024
1799.9996,0.83668345
1801.9996,0.8362442
1803.9996,0.83554024
1805.9996,0.83527637
1807.9996,0.83404547
1809.9996,0.8320814
1811.9996,0.82988346
1813.9996,0.82847637
1815.9996,0.82812476
1817.9996,0.82724464
1819.9996,0.8257499
1821.9996,0.82548594
1823.9996,0.82557446
1825.9996,0.82548594
1827.9996,0.82715696
1829.9996,0.8270692
1831.9996,0.8263653
1833.9996,0.82724464
1835.9996,0.82847637
1837.9996,0.8279486
1839.9996,0.8263653
1841.9996,0.82601374
1843.9996,0.8237273
1845.9996,0.8214409
1847.9996,0.82152855
1849.9996,0.82108927
1851.9996,0.82188094
1853.9996,0.8222325
1855.9996,0.8223202
1857.9996,0.821177
1859.9996,0.81809974
1861.9996,0.81557864
1863.9996,0.81487465
1865.9996,0.8141131
1867.9996,0.8122659
1869.9996,0.80637443
1871.9996,0.80007213
1873.9996,0.7940629
1875.9996,0.7853857
1877.9996,0.7728103
1879.9996,0.75920945
1881.9996,0.75630754
1883.9996,0.7689414
1885.9996,0.7887861
1887.9996,0.8045565
1889.9996,0.8137607
1891.9996,0.81915444
1893.9996,0.82188094
1895.9996,0.8225841
1897.9996,0.8227603
1899.9996,0.8220563
1901.9996,0.8213532
1903.9996,0.8217924
1905.9996,0.8213532
1907.9996,0.82038534
1909.9996,0.81880283
1911.9996,0.81777656
1913.9996,0.8172496
1915.9996,0.8169857
1917.9996,0.8156663
1919.9996,0.81296986
1921.9996,0.8127937
1923.9996,0.81402457
1925.9996,0.81601787
1927.9996,0.8170734
1929.9996,0.8159302
1931.9996,0.81522626
1933.9996,0.81540245
1935.9996,0.8151386
1937.9996,0.8144354
1939.9996,0.8151386
1941.9996,0.8158425
1943.9996,0.81496316
1945.9996,0.81420076
1947.9996,0.8127937
1949.9996,0.8121782
1951.9996,0.8126175
1953.9996,0.8126175
1955.9996,0.8113281
1957.9996,0.81182665
1959.9996,0.81244206
1961.9996,0.8126175
1963.9996,0.8127937
1965.9996,0.8122659
1967.9996,0.81036025
1969.9996,0.8092471
1971.9996,0.80801535
1973.9996,0.8068137
1975.9996,0.80637443
1977.9996,0.8062859
1979.9996,0.8062859
1981.9996,0.80654985
1983.9996,0.80619824
1985.9996,0.80438113
1987.9996,0.80291474
1989.9996,0.80379486
1991.9996,0.8044688
1993.9996,0.803531
1995.9996,0.8025924
1997.9996,0.80224085
1999.9996,0.80171305
2001.9996,0.8003352
2003.9996,0.7993974
2005.9996,0.79869425
2007.9996,0.79775566
2009.9996,0.7978442
2011.9996,0.7984596
2013.9996,0.79886967
2015.9996,0.7995736
2017.9996,0.79983747
2019.9996,0.8005991
2021.9996,0.8013615
2023.9996,0.80171305
2025.9996,0.8012738
2027.9996,0.8013615
2029.9996,0.8012738
2031.9996,0.8013615
2033.9996,0.80103916
2035.9996,0.7999836
2037.9996,0.79983747
2039.9996,0.7994851
2041.9996,0.7983719
2043.9996,0.7982834
2045.9996,0.79869425
2047.9996,0.79869425
2049.9995,0.79793185
2051.9995,0.79708177
2053.9995,0.79740405
2055.9995,0.79716945
2057.9995,0.7964663
2059.9995,0.7958801
2061.9995,0.7962024
2063.9995,0.79708177
2065.9995,0.79716945
2067.9995,0.7966425
2069.9995,0.7960563
2071.9995,0.7958801
2073.9995,0.7950884
2075.9995,0.79415065
2077.9995,0.793916
2079.9995,0.79400367
2081.9995,0.7933882
2083.9995,0.79227424
2085.9995,0.7918642
2087.9995,0.79048634
2089.9995,0.7876721
2091.9995,0.78673434
2093.9995,0.78691053
2095.9995,0.786412
2097.9995,0.7857965
2099.9995,0.7856496
2101.9995,0.78570807
2103.9995,0.7860604
2105.9995,0.78740823
2107.9995,0.7883468
2109.9995,0.78946
2111.9995,0.79039866
2113.9995,0.7907502
2115.9995,0.7911602
2117.9995,0.79048634
2119.9995,0.7893723
2121.9995,0.78869843
2123.9995,0.7889623
2125.9995,0.78905
2127.9995,0.78946
2129.9995,0.7901347
2131.9995,0.79031014
2133.9995,0.79031014
2135.9995,0.7898124
2137.9995,0.78869843
2139.9995,0.78869843
2141.9995,0.7889623
2143.9995,0.78869843
2145.9995,0.7888738
2147.9995,0.7888738
2149.9995,0.7881999
2151.9995,0.7870859
2153.9995,0.78597194
2155.9995,0.7855619
2157.9995,0.7854742
2159.9995,0.7856496
2161.9995,0.7857965
2163.9995,0.785298
2165.9995,0.7847118
2167.9995,0.7847118
2169.9995,0.78494644
2171.9995,0.7838617
2173.9995,0.7829239
2175.9995,0.78266
2177.9995,0.7819853
2179.9995,0.78081286
2181.9995,0.78081286
2183.9995,0.7818976
2185.9995,0.782513
2187.9995,0.78301156
2189.9995,0.78301156
2191.9995,0.7827477
2193.9995,0.78301156
2195.9995,0.7832754
2197.9995,0.7833339
2199.9995,0.7833339
2201.9995,0.7829239
2203.9995,0.78266
2205.9995,0.7835101
2207.9995,0.7835978
2209.9995,0.7827477
2211.9995,0.7818976
2213.9995,0.78175145
2215.9995,0.78122365
2217.9995,0.7802266
2219.9995,0.77987504
2221.9995,0.7792888
2223.9995,0.7782625
2225.9995,0.7781748
2227.9995,0.7785264
2229.9995,0.77884877
2231.9995,0.7789372
2233.9995,0.7787903
2235.9995,0.7787026
2237.9995,0.77794015
2239.9995,0.77726626
2241.9995,0.7774416
2243.9995,0.7770901
2245.9995,0.77615225
2247.9995,0.7756537
2249.9995,0.77632844
2251.9995,0.7760938
2253.9995,0.7750675
2255.9995,0.7752437
2257.9995,0.77591765
2259.9995,0.77632844
2261.9995,0.77735394
2263.9995,0.7777648
2265.9995,0.77650386
2267.9995,0.77556604
2269.9995,0.77615225
2271.9995,0.7760938
2273.9995,0.775156
2275.9995,0.7743936
2277.9995,0.7737189
2279.9995,0.7728103
2281.9995,0.7716963
2283.9995,0.77105165
2285.9995,0.77061236
2287.9995,0.7693514
2289.9995,0.76929295
2291.9995,0.7707878
2293.9995,0.77037776
2295.9995,0.7682082
2297.9995,0.7675343
2299.9995,0.767769
2301.9995,0.7662734
2303.9995,0.76278526
2305.9995,0.7609389
2307.9995,0.75920945
2309.9995,0.75721616
2311.9995,0.75780237
2313.9995,0.7589456
2315.9995,0.75985414
2317.9995,0.7599418
2319.9995,0.75929713
2321.9995,0.7583886
2323.9995,0.7566299
2325.9995,0.75481194
2327.9995,0.753171
2329.9995,0.7532587
2331.9995,0.7519393
2333.9995,0.74962366
2335.9995,0.7501222
2337.9995,0.7493898
2339.9995,0.74783576
2341.9995,0.7498875
2343.9995,0.7532587
2345.9995,0.7540796
2347.9995,0.7555744
2349.9995,0.75730383
2351.9995,0.75721616
2353.9995,0.7533464
2355.9995,0.74971217
2357.9995,0.748305
2359.9995,0.74569625
2361.9995,0.74625325
2363.9995,0.7477481
2365.9995,0.74921364
2367.9995,0.75044453
2369.9995,0.7511777
2371.9995,0.7525848
2373.9995,0.75349337
2375.9995,0.7546658
2377.9995,0.7573915
2379.9995,0.759708
2381.9995,0.76120275
2383.9995,0.76243365
2385.9995,0.76436853
2387.9995,0.7646032
2389.9995,0.76410466
2391.9995,0.76278526
2393.9995,0.7622875
2395.9995,0.7629322
2397.9995,0.7625214
2399.9995,0.76102656
2401.9995,0.7609389
2403.9995,0.7599418
2405.9995,0.75903326
2407.9995,0.759708
2409.9995,0.7607042
2411.9995,0.760528
2413.9995,0.7603527
2415.9995,0.7600303
2417.9995,0.7587986
2419.9995,0.7587109
2421.9995,0.7600303
2423.9995,0.7599418
2425.9995,0.7587109
2427.9995,0.75780237
2429.9995,0.75721616
2431.9995,0.75730383
2433.9995,0.7579485
2435.9995,0.7585347
2437.9995,0.7587986
2439.9995,0.7585347
2441.9995,0.7570399
2443.9995,0.7570399
2445.9995,0.7583009
2447.9995,0.7587986
2449.9995,0.75903326
2451.9995,0.7593556
2453.9995,0.7607919
2455.9995,0.7620236
2457.9995,0.7615251
2459.9995,0.76061654
2461.9995,0.7593556
2463.9995,0.7589456
2465.9995,0.75979567
2467.9995,0.7603527
2469.9995,0.7603527
2471.9995,0.75979567
2473.9995,0.75929713
2475.9995,0.75979567
2477.9995,0.7602942
2479.9995,0.75903326
2481.9995,0.7583009
2483.9995,0.75862324
2485.9995,0.75903326
2487.9995,0.7587986
2489.9995,0.7583009
2491.9995,0.758037
2493.9995,0.75789005
2495.9995,0.75721616
2497.9995,0.75671756
2499.9995,0.7573915
2501.9995,0.7579485
2503.9995,0.75721616
2505.9995,0.75648296
2507.9995,0.7566299
2509.9995,0.75630754
2511.9995,0.7553105
2513.9995,0.7559852
2515.9995,0.75589675
2517.9995,0.75498813
2519.9995,0.7544896
2521.9995,0.7544019
2523.9995,0.7550758
2525.9995,0.7556328
2527.9995,0.75539815
2529.9995,0.75481194
2531.9995,0.7536687
2533.9995,0.75217396
2535.9995,0.7512654
2537.9995,0.7507669
2539.9995,0.7511777
2541.9995,0.7507669
2543.9995,0.749946
2545.9995,0.7491259
2547.9995,0.7483927
2549.9995,0.74865663
2551.9995,0.74856895
2553.9995,0.74742573
2555.9995,0.7456078
2557.9995,0.74511003
2559.9995,0.7439668
2561.9995,0.74176806
2563.9995,0.7404779
2565.9995,0.7407126
2567.9995,0.7409472
2569.9995,0.739804
2571.9995,0.73974556
2573.9995,0.74062485
2575.9995,0.7420904
2577.9995,0.74428916
2579.9995,0.746194
2581.9995,0.74742573
2583.9995,0.7481581
2585.9995,0.7493898
2587.9995,0.74962366
2589.9995,0.7481581
2591.9995,0.7469272
2593.9995,0.74528545
2595.9995,0.7427351
2597.9995,0.7401263
2599.9995,0.7391593
2601.9995,0.7389247
2603.9995,0.73866075
2605.9995,0.74053717
2607.9995,0.7436437
2609.9995,0.7446992
2611.9995,0.74511003
2613.9995,0.74593014
2615.9995,0.74552006
2617.9995,0.7450508
2619.9995,0.7448754
2621.9995,0.7440545
2623.9995,0.7425005
2625.9995,0.74176806
2627.9995,0.7426767
2629.9995,0.7430867
2631.9995,0.74194425
2633.9995,0.74153346
2635.9995,0.7404779
2637.9995,0.739247
2639.9995,0.7391593
2641.9995,0.73860234
2643.9995,0.73901236
2645.9995,0.7408595
2647.9995,0.7426767
2649.9995,0.74332136
2651.9995,0.7434098
2653.9995,0.7418558
2655.9995,0.7408595
2657.9995,0.7407126
2659.9995,0.74062485
2661.9995,0.74053717
2663.9995,0.74062485
2665.9995,0.74021405
2667.9995,0.74080104
2669.9995,0.7425005
2671.9995,0.74437684
2673.9995,0.7449631
2675.9995,0.7460186
2677.9995,0.7471618
2679.9995,0.7469272
2681.9995,0.74642867
2683.9995,0.745784
2685.9995,0.74428916
2687.9995,0.7432336
2689.9995,0.74373215
2691.9995,0.74428916
2693.9995,0.74373215
2695.9995,0.7427351
2697.9995,0.74235433
2699.9995,0.7430867
2701.9995,0.74349755
2703.9995,0.7428236
2705.9995,0.74258894
2707.9995,0.7420027
2709.9995,0.7428236
2711.9995,0.74241275
2713.9995,0.7410349
2715.9995,0.74176806
2717.9995,0.7415919
2719.9995,0.7401263
2721.9995,0.73907083
2723.9995,0.73883694
2725.9995,0.73883694
2727.9995,0.7380161
2729.9995,0.7383384
2731.9995,0.7373714
2733.9995,0.7373714
2735.9995,0.73901236
2737.9995,0.7389247
2739.9995,0.7376937
2741.9995,0.7374591
2743.9995,0.7373714
2745.9995,0.73778147
2747.9995,0.739247
2749.9995,0.7389247
2751.9995,0.73842615
2753.9995,0.73828
2755.9995,0.73778147
2757.9995,0.73842615
2759.9995,0.739247
2761.9995,0.73866075
2763.9995,0.73704827
2765.9995,0.73590505
2767.9995,0.73543656
2769.9995,0.7351142
2771.9995,0.73534805
2773.9995,0.7347919
2775.9995,0.73549503
2777.9995,0.73663825
2779.9995,0.73649126
2781.9995,0.73534805
2783.9995,0.73485035
2785.9995,0.73526037
2787.9995,0.73534805
2789.9995,0.73599356
2791.9995,0.7361689
2793.9995,0.7355827
2795.9995,0.7351142
2797.9995,0.7344395
2799.9995,0.73364866
2801.9995,0.73194844
2803.9995,0.7308929
2805.9995,0.7314499
2807.9995,0.7324169
2809.9995,0.73364866
2811.9995,0.7337948
2813.9995,0.7324169
2815.9995,0.7320946
2817.9995,0.7320361
2819.9995,0.73194844
2821.9995,0.73218226
2823.9995,0.73121524
2825.9995,0.73048204
2827.9995,0.7302482
2829.9995,0.7294566
2831.9995,0.7288119
2833.9995,0.7275217
2835.9995,0.72661316
2837.9995,0.72661316
2839.9995,0.72461987
2841.9995,0.72174716
2843.9995,0.7194023
2845.9995,0.71606034
2847.9995,0.71210295
2849.9995,0.70852715
2851.9995,0.70562524
2853.9995,0.70483357
2855.9995,0.70600605
2857.9995,0.7075008
2859.9995,0.7101981
2861.9995,0.71298224
2863.9995,0.71488786
2865.9995,0.7171159
2867.9995,0.7176728
2869.9995,0.7173505
2871.9995,0.71822983
2873.9995,0.7185522
2875.9995,0.71846366
2877.9995,0.718376
2879.9995,0.71822983
2881.9995,0.717819
2883.9995,0.7171743
2885.9995,0.7153572
2887.9995,0.7112236
2889.9995,0.70797014
2891.9995,0.70876175
2893.9995,0.7107551
2895.9995,0.71113586
2897.9995,0.71052045
2899.9995,0.7092595
2901.9995,0.7094941
2903.9995,0.7108428
2905.9995,0.7101981
2907.9995,0.7097288
2909.9995,0.7092595
2911.9995,0.7069731
2913.9995,0.7033388
2915.9995,0.70028996
2917.9995,0.69800353
2919.9995,0.69425154
2921.9995,0.69184816
2923.9995,0.69155425
2925.9995,0.6920236
2927.9995,0.69348913
2929.9995,0.6961271
2931.9995,0.6982382
2933.9995,0.7004369
2935.9995,0.7027233
2937.9995,0.7047459
2939.9995,0.70726615
2941.9995,0.7100511
2943.9995,0.7133639
2945.9995,0.7141547
2947.9995,0.7128069
2949.9995,0.71289456
2951.9995,0.7131292
2953.9995,0.71271837
2955.9995,0.71242523
2957.9995,0.7122499
2959.9995,0.71248454
2961.9995,0.7120152
2963.9995,0.7105789
2965.9995,0.71052045
2967.9995,0.7117806
2969.9995,0.714067
2971.9995,0.715591
2973.9995,0.7145655
2975.9995,0.7137739
2977.9995,0.71353924
2979.9995,0.71488786
2981.9995,0.716852
2983.9995,0.7173505
2985.9995,0.71749663
2987.9995,0.7181413
2989.9995,0.7185522
2991.9995,0.7185522
2993.9995,0.7188453
2995.9995,0.7191092
2997.9995,0.71902066
2999.9995,0.720457
3001.9995,0.7209263
3003.9995,0.7206917
3005.9995,0.7202232
3007.9995,0.71981233
3009.9995,0.7199885
3011.9995,0.7199885
3013.9995,0.71990085
3015.9995,0.71972466
3017.9995,0.7192553
3019.9995,0.7181413
3021.9995,0.7165589
3023.9995,0.71600187
3025.9995,0.71488786
3027.9995,0.7120152
3029.9995,0.7112236
3031.9995,0.7114582
3033.9995,0.7117806
3035.9995,0.71098894
3037.9995,0.7107551
3039.9995,0.7132754
3041.9995,0.7159142
3043.9995,0.716705
3045.9995,0.71600187
3047.9995,0.71447784
3049.9995,0.71345156
3051.9995,0.7126599
3053.9995,0.7107551
3055.9995,0.7082925
3057.9995,0.708234
3059.9995,0.7106666
3061.9995,0.714624
3063.9995,0.716705
3065.9995,0.71679354
3067.9995,0.7165589
3069.9995,0.7158257
3071.9995,0.71550333
3073.9995,0.71503484
3075.9995,0.71600187
3077.9995,0.716852
3079.9995,0.715181
3081.9995,0.71392083
3083.9995,0.71353924
3085.9995,0.71271837
3087.9995,0.71233755
3089.9995,0.71242523
3091.9995,0.71107745
3093.9995,0.7087025
3095.9995,0.7084687
3097.9995,0.7091718
3099.9995,0.7096411
3101.9995,0.7101981
3103.9995,0.71052045
3105.9995,0.7107551
3107.9995,0.7107551
3109.9995,0.7094941
3111.9995,0.7088495
3113.9995,0.70876175
3115.9995,0.7075893
3117.9995,0.70656306
3119.9995,0.7077355
3121.9995,0.70940644
3123.9995,0.7090256
3125.9995,0.7075893
3127.9995,0.7064161
3129.9995,0.70585907
3131.9995,0.7056837
3133.9995,0.70600605
3135.9995,0.70735466
3137.9995,0.70735466
3139.9995,0.7063284
3141.9995,0.70562524
3143.9995,0.70468664
3145.9995,0.70562524
3147.9995,0.7053906
3149.9995,0.7049213
3151.9995,0.7056837
3153.9995,0.70585907
3155.9995,0.7044528
3157.9995,0.7038073
3159.9995,0.7039543
3161.9995,0.7041889
3163.9995,0.7037196
3165.9995,0.7028695
3167.9995,0.7019317
3169.9995,0.7005246
3171.9995,0.7000553
3173.9995,0.6994983
3175.9995,0.69738805
3177.9995,0.6961271
3179.9995,0.6952778
3181.9995,0.6939584
3183.9995,0.69348913
3185.9995,0.6917889
3187.9995,0.6902357
3189.9995,0.689444
3191.9995,0.6880661
3193.9995,0.6862782
3195.9995,0.684578
3197.9995,0.6842849
3199.9995,0.68812543
3201.9995,0.6938707
3203.9995,0.69700724
3205.9995,0.69794506
3207.9995,0.69800353
3209.9995,0.6983259
3211.9995,0.6995868
3213.9995,0.69973296
3215.9995,0.69987994
3217.9995,0.69935215
3219.9995,0.69926363
3221.9995,0.6978574
3223.9995,0.69738805
3225.9995,0.6981797
3227.9995,0.6981797
3229.9995,0.69841355
3231.9995,0.6978574
3233.9995,0.6961271
3235.9995,0.6961271
3237.9995,0.6964503
3239.9995,0.6953655
3241.9995,0.69425154
3243.9995,0.6935776
3245.9995,0.69348913
3247.9995,0.6934014
3249.9995,0.6917889
3251.9995,0.6907634
3253.9995,0.6906165
3255.9995,0.68991333
3257.9995,0.68891627
3259.9995,0.6885062
3261.9995,0.68991333
3263.9995,0.68891627
3265.9995,0.6862782
3267.9995,0.6859559
3269.9995,0.6864252
3271.9995,0.6856628
3273.9995,0.6855751
3275.9995,0.68443185
3277.9995,0.6825847
3279.9995,0.68179303
3281.9995,0.6807968
3283.9995,0.6801229
3285.9995,0.6794189
3287.9995,0.6786565
3289.9995,0.6788912
3291.9995,0.6789797
3293.9995,0.6774256
3295.9995,0.67622393
3297.9995,0.67552
3299.9995,0.67437756
3301.9995,0.6726181
3303.9995,0.6714164
3305.9995,0.6711818
3307.9995,0.6713287
3309.9995,0.6701855
3311.9995,0.66798675
3313.9995,0.66602266
3315.9995,0.6647333
3317.9995,0.66405857
3319.9995,0.6637655
3321.9995,0.66276926
3323.9995,0.6620953
3325.9995,0.66089284
3327.9995,0.658431
3329.9995,0.6564085
3331.9995,0.6550598
3333.9995,0.65347654
3335.9995,0.6519233
3337.9995,0.64969534
3339.9995,0.647145
3341.9995,0.64494705
3343.9995,0.6425721
3345.9995,0.6395533
3347.9995,0.6370615
3349.9995,0.6344235
3351.9995,0.62926435
3353.9995,0.6242514
3355.9995,0.6203533
3357.9995,0.6155458
3359.9995,0.6101228
3361.9995,0.6021203
3363.9995,0.59212446
3365.9995,0.5818063
3367.9995,0.57013947
3369.9995,0.5553369
3371.9995,0.5357553
3373.9995,0.5108684
3375.9995,0.47900528
3377.9995,0.43802568
3379.9995,0.38927823
3381.9995,0.34492743
3383.9995,0.3360456
3385.9995,0.39484733
3387.9995,0.50910974
3389.9995,0.61663055
3391.9995,0.680416
3393.9995,0.7090841
3395.9995,0.7185522
3397.9995,0.72036934
3399.9995,0.71981233
3401.9995,0.71679354
3403.9995,0.7121914
3405.9995,0.70782316
3407.9995,0.70468664
3409.9995,0.7027233
3411.9995,0.70034844
3413.9995,0.6961271
3415.9995,0.6921705
3417.9995,0.6902941
3419.9995,0.68789077
3421.9995,0.68235004
3423.9995,0.67698634
3425.9995,0.6744653
3427.9995,0.6745237
3429.9995,0.6727066
3431.9995,0.6688369
3433.9995,0.6656419
3435.9995,0.66361934
3437.9995,0.6599258
3439.9995,0.6558807
3441.9995,0.6519233
3443.9995,0.6482005
3445.9995,0.64529866
3447.9995,0.6389671
3449.9995,0.63114
3451.9995,0.6256878
3453.9995,0.61871153
3455.9995,0.6095658
3457.9995,0.59945303
3459.9995,0.58796245
3461.9995,0.5733937
3463.9995,0.5556885
3465.9995,0.53499365
3467.9995,0.5075565
3469.9995,0.47668964
3471.9995,0.44863698
3473.9995,0.43650168
3475.9995,0.45746037
3477.9995,0.5127448
3479.9995,0.58166015
3481.9995,0.64529866
3483.9995,0.6913789
3485.9995,0.718376
3487.9995,0.73309165
3489.9995,0.7414458
3491.9995,0.74528545
3493.9995,0.74783576
3495.9995,0.7488913
3497.9995,0.74765956
3499.9995,0.74511003
3501.9995,0.7442299
3503.9995,0.7428236
3505.9995,0.73998016
3507.9995,0.7381038
3509.9995,0.7375468
3511.9995,0.73663825
3513.9995,0.7364036
3515.9995,0.73590505
3517.9995,0.73485035
3519.9995,0.73411715
3521.9995,0.73347247
3523.9995,0.7331501
3525.9995,0.7310691
3527.9995,0.7295151
3529.9995,0.7300136
3531.9995,0.7300136
3533.9995,0.7301013
3535.9995,0.7322708
3537.9995,0.73218226
3539.9995,0.7324169
3541.9995,0.7315376
3543.9995,0.73057055
3545.9995,0.73015976
3547.9995,0.7298374
3549.9995,0.7301013
3551.9995,0.730746
3553.9995,0.73139143
3555.9995,0.7328278
3557.9995,0.73309165
3559.9995,0.7332378
3561.9995,0.73347247
3563.9995,0.7325931
3565.9995,0.73057055
3567.9995,0.7275217
3569.9995,0.7293689
3571.9995,0.7340587
3573.9995,0.73649126
3575.9995,0.73681444
3577.9995,0.73704827
3579.9995,0.7380161
3581.9995,0.7389247
3583.9995,0.74080104
3585.9995,0.7404779
3587.9995,0.73373634
3589.9995,0.734528
3591.9995,0.7389247
3593.9995,0.73907083
3595.9995,0.73687285
3597.9995,0.7351142
3599.9995,0.7362282
3601.9995,0.7394816
3603.9995,0.7420027
3605.9995,0.7409472
3607.9995,0.73866075
3609.9995,0.73778147
3611.9995,0.73939395
3613.9995,0.74053717
3615.9995,0.7409472
3617.9995,0.7408595
3619.9995,0.7396579
3621.9995,0.73907083
3623.9995,0.7409472
3625.9995,0.74314594
3627.9995,0.74414223
3629.9995,0.7373714
3631.9995,0.7356712
3633.9995,0.73860234
3635.9995,0.7416804
3637.9995,0.7438783
3639.9995,0.74464077
3641.9995,0.7444646
3643.9995,0.745784
3645.9995,0.74742573
3647.9995,0.7451977
3649.9995,0.7426767
3651.9995,0.74053717
3653.9995,0.7434098
3655.9995,0.7442299
3657.9995,0.74349755
3659.9995,0.7475719
3661.9995,0.7481581
3663.9995,0.7475719
3665.9995,0.7494775
3667.9995,0.7514416
3669.9995,0.7483927
3671.9995,0.74314594
3673.9995,0.7487151
3675.9995,0.7480704
3677.9995,0.74080104
3679.9995,0.7430867
3681.9995,0.7469272
3683.9995,0.7506207
3685.9995,0.75243783
3687.9995,0.75235015
3689.9995,0.75176394
3691.9995,0.7469272
3693.9995,0.7456078
3695.9995,0.7470149
3697.9995,0.7477481
3699.9995,0.749946
3701.9995,0.75003445
3703.9995,0.74724954
3705.9995,0.7481581
3707.9995,0.74906665
3709.9995,0.7488913
3711.9995,0.74675095
3713.9995,0.7448754
3715.9995,0.74642867
3717.9995,0.7494775
3719.9995,0.7511777
3721.9995,0.74979985
3723.9995,0.74683946
3725.9995,0.74625325
3727.9995,0.746194
3729.9995,0.7481581
3731.9995,0.75094306
3733.9995,0.749946
3735.9995,0.74428916
3737.9995,0.7422666
3739.9995,0.7430867
3741.9995,0.7429113
3743.9995,0.7438199
3745.9995,0.74053717
3747.9995,0.74314594
3749.9995,0.74135727
3751.9995,0.7420904
3753.9995,0.74528545
3755.9995,0.74651635
3757.9995,0.74824655
3759.9995,0.74765956
3761.9995,0.7473372
3763.9995,0.74921364
3765.9995,0.7473372
3767.9995,0.7466633
3769.9995,0.7487151
3771.9995,0.7475719
3773.9995,0.7479827
3775.9995,0.748305
3777.9995,0.7480704
3779.9995,0.74660486
3781.9995,0.74552006
3783.9995,0.74660486
3785.9995,0.7477481
3787.9995,0.74971217
3789.9995,0.7513531
3791.9995,0.7525848
3793.9995,0.7526725
3795.9995,0.7511777
3797.9995,0.74683946
3799.9995,0.74848044
3801.9995,0.74979985
3803.9995,0.7458424
3805.9995,0.74675095
3807.9995,0.7451977
3809.9995,0.7460186
3811.9995,0.74651635
3813.9995,0.74921364
3815.9995,0.7520863
3817.9995,0.7507084
3819.9995,0.7526725
3821.9995,0.74824655
3823.9995,0.74552006
3825.9995,0.74856895
3827.9995,0.7491259
3829.9995,0.7501222
3831.9995,0.7513531
3833.9995,0.75235015
3835.9995,0.75176394
3837.9995,0.7483927
3839.9995,0.7450508
3841.9995,0.74528545
3843.9995,0.7456078
3845.9995,0.7454324
3847.9995,0.7471618
3849.9995,0.74848044
3851.9995,0.745784
3853.9995,0.73599356
3855.9995,0.739804
3857.9995,0.7427351
3859.9995,0.744553
3861.9995,0.7466633
3863.9995,0.74683946
3865.9995,0.7449631
3867.9995,0.74906665
3869.9995,0.74748415
3871.9995,0.7357589
3873.9995,0.73778147
3875.9995,0.74135727
3877.9995,0.74437684
3879.9995,0.74528545
3881.9995,0.7446992
3883.9995,0.7471618
3885.9995,0.7460186
3887.9995,0.7451977
3889.9995,0.7481581
3891.9995,0.74748415
3893.9995,0.74528545
3895.9995,0.7471618
3897.9995,0.75044453
3899.9995,0.7498875
3901.9995,0.74824655
3903.9995,0.7481581
3905.9995,0.74625325
3907.9995,0.74651635
3909.9995,0.749536
3911.9995,0.75349337
3913.9995,0.7540796
3915.9995,0.75290716
3917.9995,0.7524963
3919.9995,0.7512654
3921.9995,0.75103074
3923.9995,0.753171
3925.9995,0.75176394
3927.9995,0.75111926
3929.9995,0.75217396
3931.9995,0.75299484
3933.9995,0.75349337
3935.9995,0.7534057
3937.9995,0.75243783
3939.9995,0.7514416
3941.9995,0.7518516
3943.9995,0.7511777
3945.9995,0.75158775
3947.9995,0.75217396
3949.9995,0.75111926
3951.9995,0.7518516
3953.9995,0.7520863
3955.9995,0.75235015
3957.9995,0.75358105
3959.9995,0.75299484
3961.9995,0.75290716
3963.9995,0.7539034
3965.9995,0.7530825
3967.9995,0.7545781
3969.9995,0.75648296
3971.9995,0.75490046
3973.9995,0.7533464
3975.9995,0.75431424
3977.9995,0.7550758
3979.9995,0.755809
3981.9995,0.75648296
3983.9995,0.7560437
3985.9995,0.75548667
3987.9995,0.75630754
3989.9995,0.7563952
3991.9995,0.75539815
3993.9995,0.75431424
3995.9995,0.75375724
3997.9995,0.7540796
3999.9995,0.75422573



