--> cylohex-out0.spa
#1:
# Collect\ Raman\ -\ Final\ format=Spectrum
# Collect\ Raman\ -\ Final\ format\tDataType=S
# Collect\ Raman\ -\ Resolution=4.000 from 5398.1768 to 12400.9561
# Collect\ Raman\ -\ Resolution\tDataType=S
# Format=NIR
# Format\tDataType=S
# Insert\ Timestamp=2000-01-01 00\:00\:00
# Insert\ Timestamp\tDataType=S
# Instrument=unknown
# Instrument\tDataType=S
# Parent\ ID=-1
# Sample\ ID=Cyclohexane Sample
# Sample\ ID\tDataType=S
# Source=cylohex.spa
# Source\tDataType=S
waveno,amplitude
-3004.0283,0.032076966
-3002.0996,0.030682137
-3000.1719,0.0100171715
-2998.2441,0.023106787
-2996.3154,0.029033279
-2994.3877,0.01630378
-2992.4595,0.0080737835
-2990.5312,0.023692546
-2988.6035,0.029445501
-2986.6753,0.023188656
-2984.747,0.022053491
-2982.8193,0.024058642
-2980.891,0.031609293
-2978.963,0.031007333
-2977.0347,0.026570447
-2975.107,0.030178687
-2973.1792,0.046742573
-2971.2505,0.023512775
-2969.3228,0.020895192
-2967.394,0.033748046
-2965.4663,0.009556343
-2963.5386,0.025187418
-2961.6104,0.021116434
-2959.6821,0.009161281
-2957.754,0.0077466154
-2955.8262,0.016171481
-2953.898,0.043359566
-2951.9697,0.04543892
-2950.042,0.030964268
-2948.1138,0.016419498
-2946.1855,0.025377981
-2944.2578,0.0435212
-2942.329,0.0435619
-2940.4014,0.015813027
-2938.4736,0.01106992
-2936.545,0.012134437
-2934.6172,0.014251621
-2932.689,0.020464499
-2930.7612,0.030868478
-2928.833,0.026212877
-2926.9048,0.022748917
-2924.977,0.023665592
-2923.0483,0.02693506
-2921.1206,0.026560307
-2919.1929,0.019396635
-2917.2642,0.009036486
-2915.3364,0.016156593
-2913.4082,0.0047276565
-2911.48,0.007328407
-2909.5522,0.027926119
-2907.624,0.028770396
-2905.6958,0.0091090705
-2903.768,0.024954427
-2901.8398,0.0400038
-2899.912,0.03057201
-2897.9834,0.022503238
-2896.0557,0.036062364
-2894.128,0.030221356
-2892.1992,0.016414674
-2890.2715,0.020205826
-2888.3433,0.016870264
-2886.415,0.013251826
-2884.4873,0.015374768
-2882.559,0.018000111
-2880.6309,0.0145662725
-2878.7026,0.016815221
-2876.775,0.018768586
-2874.8467,0.017850997
-2872.9185,0.0017977842
-2870.9907,0.0059881164
-2869.063,0.009943722
-2867.1343,0.03279707
-2865.2065,0.02797017
-2863.2783,0.019644517
-2861.35,0.018048353
-2859.4224,0.02361084
-2857.4941,0.013142612
-2855.566,0.014119527
-2853.6377,0.012867344
-2851.71,0.006935104
-2849.7817,0.02816079
-2847.8535,0.02236472
-2845.9258,0.0035201865
-2843.997,0.012732714
-2842.0693,0.0135781905
-2840.1416,0.0036523135
-2838.213,0.014269286
-2836.2852,0.026183633
-2834.3574,0.02140207
-2832.4292,0.0065927347
-2830.501,0.03595226
-2828.5728,0.039530665
-2826.645,0.04323786
-2824.7168,0.053740863
-2822.7886,0.0122539075
-2820.8608,0.027077435
-2818.9321,0.026278066
-2817.0044,0.026627801
-2815.0767,0.018403014
-2813.148,0.0083492575
-2811.2202,0.004831384
-2809.292,0.016821858
-2807.3638,0.021389183
-2805.436,0.013944239
-2803.5078,0.016642714
-2801.58,0.015436553
-2799.6519,0.0075330823
-2797.7236,0.033356696
-2795.796,0.023738338
-2793.8672,0.02481756
-2791.9395,0.014715285
-2790.0117,0.010583543
-2788.083,0.017321024
-2786.1553,0.008481727
-2784.227,0.048865747
-2782.2988,0.05062846
-2780.371,0.021576094
-2778.4429,0.0150040435
-2776.5146,0.023084471
-2774.5864,0.023814302
-2772.6587,0.022748308
-2770.731,0.021664549
-2768.8022,0.016182095
-2766.8745,0.00587903
-2764.9458,0.03507573
-2763.018,0.036426928
-2761.0903,0.009438102
-2759.162,0.025337094
-2757.234,0.031405725
-2755.3062,0.015762491
-2753.378,0.011959084
-2751.4497,0.007942106
-2749.5215,0.010658218
-2747.5938,0.016277451
-2745.6655,0.03378741
-2743.7373,0.046480257
-2741.8096,0.053307995
-2739.8809,0.03930519
-2737.9531,0.005340013
-2736.0254,0.014353595
-2734.0967,0.007284479
-2732.169,0.012399998
-2730.2407,0.009241464
-2728.313,0.0065595163
-2726.3848,0.005710607
-2724.4565,0.022535777
-2722.5288,0.030637369
-2720.6006,0.026140817
-2718.6724,0.016368538
-2716.7446,0.012455562
-2714.816,0.015424023
-2712.8882,0.013965889
-2710.9604,0.009054107
-2709.0317,0.018021617
-2707.104,0.04063262
-2705.1758,0.041533362
-2703.2476,0.033848256
-2701.3198,0.021533335
-2699.3916,0.013079919
-2697.4639,0.025097871
-2695.5352,0.021601371
-2693.6074,0.053225223
-2691.6797,0.036495667
-2689.751,0.01631167
-2687.8232,0.020067573
-2685.8955,0.030438839
-2683.9668,0.0254312
-2682.039,0.04197809
-2680.1108,0.022823637
-2678.1826,0.016985977
-2676.255,0.020175148
-2674.3267,0.012254824
-2672.3984,0.01399872
-2670.4702,0.008901352
-2668.5425,0.016730934
-2666.6147,0.035461437
-2664.686,0.041344292
-2662.7583,0.01004026
-2660.83,0.037637
-2658.9019,0.033106804
-2656.974,0.011401227
-2655.046,0.036064506
-2653.1177,0.019536246
-2651.19,0.010718657
-2649.2617,0.011133812
-2647.3335,0.015466857
-2645.4053,0.021171024
-2643.4775,0.018188173
-2641.5493,0.027169984
-2639.621,0.039656557
-2637.6934,0.040337414
-2635.7646,0.040898357
-2633.837,0.03163338
-2631.9092,0.021763342
-2629.981,0.03475516
-2628.0527,0.0140679
-2626.1245,0.026834091
-2624.1968,0.021101212
-2622.2686,0.01446386
-2620.3403,0.022470592
-2618.4126,0.014420949
-2616.484,0.008834038
-2614.5562,0.021099588
-2612.6284,0.029473502
-2610.6997,0.023349836
-2608.772,0.011225777
-2606.8442,0.016688433
-2604.9155,0.024274183
-2602.9878,0.031464078
-2601.0596,0.011340738
-2599.1318,0.028446937
-2597.2036,0.0154342875
-2595.2754,0.016124535
-2593.3477,0.028566362
-2591.419,0.02409812
-2589.4912,0.017108774
-2587.5635,0.022511253
-2585.6348,0.0012316144
-2583.707,0.016430011
-2581.7788,0.005137875
-2579.8506,0.019682484
-2577.9229,0.032832596
-2575.9946,0.041861374
-2574.0664,0.022427065
-2572.1387,0.011841874
-2570.2104,0.020097392
-2568.2827,0.01580068
-2566.354,0.026662728
-2564.4263,0.02309587
-2562.4985,0.025150664
-2560.5698,0.010621746
-2558.642,0.029872349
-2556.7139,0.008469427
-2554.7856,0.0127053205
-2552.858,0.022112673
-2550.9297,0.010197577
-2549.0015,0.035459332
-2547.0732,0.026816363
-2545.1455,0.010729514
-2543.2173,0.012180511
-2541.289,0.024018776
-2539.3613,0.015802443
-2537.4336,0.018348586
-2535.505,0.029193368
-2533.5771,0.033896863
-2531.6484,0.035580613
-2529.7207,0.029332079
-2527.793,0.04859642
-2525.8647,0.047617573
-2523.9365,0.017261097
-2522.0083,0.0169955
-2520.0806,0.013982082
-2518.1523,0.01356721
-2516.224,0.011281866
-2514.2964,0.02436335
-2512.3677,0.024900232
-2510.44,0.016770342
-2508.5122,0.01353113
-2506.5835,0.020068657
-2504.6558,0.047528476
-2502.728,0.03974208
-2500.7993,0.024085175
-2498.8716,0.03095684
-2496.9434,0.021599418
-2495.0156,0.010794151
-2493.0874,0.01497506
-2491.1592,0.021905212
-2489.2314,0.024860887
-2487.3027,0.024739033
-2485.375,0.02411305
-2483.4473,0.03437992
-2481.5186,0.019483306
-2479.5908,0.030761486
-2477.6626,0.022953628
-2475.7344,0.036736023
-2473.8066,0.023959272
-2471.8784,0.011541659
-2469.9502,0.016772456
-2468.022,0.026762025
-2466.0942,0.019414987
-2464.1665,0.019531667
-2462.2378,0.015902936
-2460.31,0.0095845135
-2458.3823,0.018996313
-2456.4536,0.024811514
-2454.526,0.026902188
-2452.5977,0.025496129
-2450.6694,0.007283345
-2448.7417,0.021025956
-2446.8135,0.0077281557
-2444.8853,0.031801373
-2442.957,0.02268426
-2441.0293,0.009767216
-2439.101,0.007895719
-2437.1729,0.031750496
-2435.245,0.032247033
-2433.3164,0.02107054
-2431.3887,0.0068206983
-2429.461,0.006531586
-2427.5327,0.014263972
-2425.6045,0.0071333833
-2423.6768,0.007799915
-2421.7485,0.013493953
-2419.8203,0.012652657
-2417.892,0.012733628
-2415.9644,0.03187477
-2414.0361,0.024367575
-2412.108,0.030441439
-2410.1802,0.024582902
-2408.2515,0.026220743
-2406.3237,0.034053475
-2404.396,0.04485039
-2402.4673,0.04078458
-2400.5396,0.024257807
-2398.6113,0.018874455
-2396.6836,0.012326682
-2394.7554,0.018687796
-2392.8271,0.0021676891
-2390.8994,0.01608046
-2388.9712,0.004992328
-2387.043,0.01483179
-2385.1152,0.019935919
-2383.1865,0.03526764
-2381.2588,0.020611199
-2379.331,0.04133222
-2377.4023,0.02811348
-2375.4746,0.019973056
-2373.5464,0.018268542
-2371.6182,0.0024375115
-2369.6904,0.012209409
-2367.7622,0.009763775
-2365.8345,0.043570146
-2363.9058,0.05025903
-2361.978,0.014428846
-2360.0503,0.010945311
-2358.1216,0.018091591
-2356.1938,0.010587834
-2354.266,0.0072301324
-2352.3374,0.02530446
-2350.4097,0.0077393767
-2348.4814,0.019419577
-2346.5532,0.01459461
-2344.6255,0.02446285
-2342.6973,0.038147278
-2340.769,0.04046484
-2338.8408,0.04359515
-2336.913,0.033232503
-2334.9854,0.012274586
-2333.0566,0.019958796
-2331.129,0.024731465
-2329.2002,0.05643397
-2327.2725,0.031080335
-2325.3447,0.002383767
-2323.4165,0.021671338
-2321.4883,0.011311531
-2319.56,0.012959935
-2317.6323,0.0130168805
-2315.704,0.0045023565
-2313.776,0.012107644
-2311.8481,0.022858458
-2309.92,0.030800067
-2307.9917,0.0069551095
-2306.064,0.0073415837
-2304.1353,0.008262719
-2302.2075,0.014248351
-2300.2798,0.02222233
-2298.351,0.022355838
-2296.4233,0.015095839
-2294.495,0.026537288
-2292.5674,0.022574214
-2290.6392,0.005797893
-2288.711,0.013697499
-2286.7832,0.024448898
-2284.8545,0.021836774
-2282.9268,0.012055724
-2280.999,0.028617304
-2279.0703,0.029260317
-2277.1426,0.004305721
-2275.2148,0.0127787655
-2273.2861,0.013715551
-2271.3584,0.027565623
-2269.4302,0.026078152
-2267.5024,0.029198717
-2265.5742,0.025859263
-2263.646,0.0050912946
-2261.7183,0.013173919
-2259.7896,0.00787745
-2257.8618,0.0018542643
-2255.934,0.009945077
-2254.0054,0.020511646
-2252.0776,0.008871433
-2250.1494,0.034260705
-2248.2212,0.05055681
-2246.2935,0.042930387
-2244.3652,0.019379228
-2242.437,0.017195785
-2240.5093,0.03565315
-2238.581,0.028870502
-2236.6533,0.025915155
-2234.7246,0.019425059
-2232.7969,0.005633234
-2230.8691,0.007749287
-2228.9404,0.001341615
-2227.0127,0.003953431
-2225.0845,0.015403484
-2223.1562,0.03849221
-2221.2285,0.054571994
-2219.3003,0.053877827
-2217.372,0.037777446
-2215.4438,0.020921972
-2213.516,0.02028486
-2211.588,0.024916746
-2209.6597,0.024486596
-2207.732,0.021801759
-2205.8032,0.043498773
-2203.8755,0.019939642
-2201.9478,0.00989395
-2200.019,0.01065684
-2198.0913,0.024989689
-2196.1636,0.020925032
-2194.2354,0.019871242
-2192.3071,0.0081647355
-2190.379,0.022231625
-2188.4512,0.028791433
-2186.523,0.0073483544
-2184.5947,0.027563242
-2182.667,0.024879115
-2180.7383,0.020835025
-2178.8105,0.01157281
-2176.8828,0.02557306
-2174.954,0.0057900175
-2173.0264,0.009149349
-2171.0981,0.009046846
-2169.17,0.016084068
-2167.2422,0.016281905
-2165.314,0.027256439
-2163.3862,0.015726367
-2161.458,0.017882617
-2159.5298,0.024956549
-2157.602,0.005369006
-2155.6733,0.023637485
-2153.7456,0.03110441
-2151.8179,0.015638812
-2149.8892,0.0072510582
-2147.9614,0.008646402
-2146.0332,0.018922662
-2144.105,0.029539265
-2142.1772,0.007843078
-2140.249,0.013821659
-2138.3208,0.014951031
-2136.3926,0.005147558
-2134.4648,0.012998778
-2132.537,0.011844878
-2130.6084,0.012715187
-2128.6807,0.024604464
-2126.753,0.017402954
-2124.8242,0.027057964
-2122.8965,0.013209563
-2120.9683,0.018865217
-2119.04,0.007539088
-2117.1123,0.016939627
-2115.184,0.021751178
-2113.2559,0.007394184
-2111.3276,0.029398171
-2109.4,0.009755137
-2107.4717,0.02061724
-2105.5435,0.016632745
-2103.6157,0.021151293
-2101.687,0.013634886
-2099.7593,0.0059332163
-2097.8315,0.02619907
-2095.9033,0.04089091
-2093.975,0.033535723
-2092.0474,0.016321402
-2090.1191,0.020743666
-2088.191,0.014368041
-2086.2627,0.01293
-2084.335,0.025482241
-2082.4067,0.016183319
-2080.4785,0.016907921
-2078.5508,0.024398958
-2076.622,0.042781115
-2074.6943,0.042894352
-2072.7666,0.03180139
-2070.838,0.008146455
-2068.9102,0.0057991105
-2066.982,0.024162695
-2065.0542,0.02991072
-2063.126,0.0367821
-2061.1978,0.017093597
-2059.27,0.015142164
-2057.3413,0.0060487036
-2055.4136,0.0068986584
-2053.4858,0.021441238
-2051.5571,0.03236204
-2049.6294,0.026703672
-2047.7017,0.032963175
-2045.773,0.036121767
-2043.8452,0.035430092
-2041.917,0.023102155
-2039.9888,0.019817377
-2038.061,0.025271425
-2036.1328,0.020718975
-2034.2051,0.024547962
-2032.2764,0.027396454
-2030.3486,0.032880973
-2028.4209,0.045640424
-2026.4922,0.022412447
-2024.5645,0.0090346495
-2022.6362,0.023715636
-2020.708,0.038849242
-2018.7803,0.05274933
-2016.852,0.05677891
-2014.9238,0.030743776
-2012.9961,0.03822438
-2011.0679,0.02155732
-2009.1396,0.016930893
-2007.2114,0.0117496345
-2005.2837,0.018863646
-2003.356,0.010876373
-2001.4272,0.014440751
-1999.4995,0.014337332
-1997.5708,0.013995058
-1995.6431,0.030380253
-1993.7153,0.026649134
-1991.7871,0.021853037
-1989.8589,0.03029419
-1987.9307,0.032882772
-1986.0029,0.0426372
-1984.0747,0.031662963
-1982.1465,0.0026630012
-1980.2188,0.024555223
-1978.2905,0.025098257
-1976.3623,0.02419205
-1974.4346,0.027071174
-1972.5059,0.007866058
-1970.5781,0.014767395
-1968.6504,0.02650942
-1966.7217,0.03344556
-1964.794,0.012869526
-1962.8657,0.019933807
-1960.938,0.014697884
-1959.0098,0.0075287074
-1957.0815,0.012852338
-1955.1538,0.016674
-1953.2251,0.01082241
-1951.2974,0.014464101
-1949.3696,0.033567254
-1947.4409,0.011763208
-1945.5132,0.028983207
-1943.5854,0.011387695
-1941.6567,0.023751043
-1939.729,0.055850796
-1937.8008,0.044879165
-1935.8726,0.022073064
-1933.9448,0.014574956
-1932.0166,0.03519191
-1930.0889,0.01470574
-1928.1602,0.018294312
-1926.2324,0.014475758
-1924.3047,0.010405917
-1922.376,0.024860563
-1920.4482,0.026696943
-1918.52,0.0055137207
-1916.5918,0.0038604573
-1914.6641,0.0055823145
-1912.7358,0.014117208
-1910.8076,0.010239859
-1908.8794,0.012861475
-1906.9517,0.017648488
-1905.0234,0.04034268
-1903.0952,0.029988842
-1901.1675,0.01534351
-1899.2397,0.01238638
-1897.311,0.010119693
-1895.3833,0.033682432
-1893.4551,0.022279132
-1891.5269,0.016451482
-1889.5991,0.0324642
-1887.6709,0.018821632
-1885.7427,0.026026662
-1883.8145,0.0095097795
-1881.8867,0.0054640803
-1879.9585,0.010689828
-1878.0303,0.01913307
-1876.1025,0.013016164
-1874.1738,0.012385063
-1872.2461,0.028548175
-1870.3184,0.016292544
-1868.3896,0.025265701
-1866.4619,0.02275008
-1864.5342,0.029116774
-1862.606,0.041859068
-1860.6777,0.032214336
-1858.7495,0.029695338
-1856.8218,0.04815659
-1854.8936,0.03705524
-1852.9653,0.04609239
-1851.0376,0.035889406
-1849.1089,0.021776501
-1847.1812,0.018118221
-1845.2534,0.017372537
-1843.3247,0.0047743297
-1841.397,0.031802546
-1839.4688,0.04451716
-1837.5405,0.019441416
-1835.6128,0.023054766
-1833.6846,0.034310892
-1831.7568,0.021907989
-1829.8286,0.01880881
-1827.9004,0.032166764
-1825.9727,0.012633043
-1824.044,0.04359427
-1822.1162,0.031464726
-1820.1885,0.0110670375
-1818.2598,0.011226394
-1816.332,0.01276823
-1814.4038,0.011707903
-1812.4756,0.014600222
-1810.5479,0.025522823
-1808.6196,0.018398833
-1806.6914,0.019774346
-1804.7632,0.06460764
-1802.8354,0.052357577
-1800.9077,0.0091400165
-1798.979,0.03133514
-1797.0513,0.03425627
-1795.1235,0.019907232
-1793.1948,0.015177762
-1791.2671,0.0054799267
-1789.3389,0.009560544
-1787.4106,0.02433927
-1785.4829,0.01029953
-1783.5547,0.024464011
-1781.6265,0.030778673
-1779.6982,0.06610405
-1777.7705,0.036778077
-1775.8423,0.011793002
-1773.9141,0.026268415
-1771.9863,0.014817305
-1770.0576,0.006050441
-1768.1299,0.03463922
-1766.2021,0.04142819
-1764.2734,0.023952717
-1762.3457,0.045266576
-1760.4175,0.031642865
-1758.4897,0.0048116334
-1756.5615,0.005306169
-1754.6333,0.009230014
-1752.7056,0.024489038
-1750.7773,0.04014374
-1748.8491,0.041134957
-1746.9214,0.014135402
-1744.9927,0.007763809
-1743.065,0.0067401924
-1741.1372,0.018837068
-1739.2085,0.010446845
-1737.2808,0.006275279
-1735.3525,0.011064468
-1733.4243,0.021537712
-1731.4966,0.0048046135
-1729.5684,0.014658583
-1727.6406,0.0144621255
-1725.7119,0.035474796
-1723.7842,0.017978836
-1721.8564,0.04074666
-1719.9277,0.060792845
-1718.0,0.021531463
-1716.0723,0.030943342
-1714.1436,0.015954364
-1712.2158,0.004427314
-1710.2876,0.011639487
-1708.3594,0.009075619
-1706.4316,0.005309974
-1704.5034,0.023859967
-1702.5752,0.031407464
-1700.647,0.023061372
-1698.7192,0.00788768
-1696.7915,0.020763721
-1694.8628,0.0061310665
-1692.935,0.016732723
-1691.0068,0.011711949
-1689.0786,0.0111572575
-1687.1509,0.014868899
-1685.2227,0.008245056
-1683.2944,0.01925291
-1681.3667,0.025931794
-1679.4385,0.023479858
-1677.5103,0.010599068
-1675.582,0.026028601
-1673.6543,0.039038952
-1671.7261,0.01954789
-1669.7979,0.015995365
-1667.8701,0.055948045
-1665.9414,0.032406818
-1664.0137,0.024841664
-1662.0859,0.040245943
-1660.1577,0.027981434
-1658.2295,0.029089835
-1656.3013,0.038054734
-1654.3735,0.022531634
-1652.4453,0.0107969865
-1650.5171,0.02296476
-1648.5894,0.022752838
-1646.6611,0.020010514
-1644.7329,0.02784613
-1642.8052,0.055732794
-1640.8765,0.025342949
-1638.9487,0.04376493
-1637.021,0.010769824
-1635.0923,0.009235961
-1633.1646,0.024903651
-1631.2363,0.018870208
-1629.3086,0.01883021
-1627.3804,0.03333198
-1625.4521,0.01995868
-1623.5244,0.0057950118
-1621.5957,0.010906006
-1619.668,0.008351223
-1617.7402,0.0071976157
-1615.8115,0.011546035
-1613.8838,0.030802459
-1611.9556,0.027302168
-1610.0273,0.015009133
-1608.0996,0.0054355436
-1606.1714,0.01609805
-1604.2432,0.04321031
-1602.3154,0.051771615
-1600.3872,0.025223741
-1598.4595,0.04856439
-1596.5308,0.058770433
-1594.603,0.038518723
-1592.6753,0.01954227
-1590.7466,0.028513612
-1588.8188,0.032890785
-1586.8906,0.034808856
-1584.9624,0.02367311
-1583.0347,0.009045802
-1581.1064,0.021360727
-1579.1782,0.04616788
-1577.25,0.02878235
-1575.3223,0.022079485
-1573.394,0.039064743
-1571.4658,0.029309789
-1569.5381,0.020518519
-1567.6104,0.033060085
-1565.6816,0.028485127
-1563.7539,0.017218681
-1561.8252,0.03367515
-1559.8975,0.039270658
-1557.9697,0.045711596
-1556.0415,0.01695197
-1554.1133,0.014473515
-1552.185,0.034984346
-1550.2573,0.024069037
-1548.3291,0.04809457
-1546.4009,0.026625482
-1544.4731,0.012790739
-1542.5444,0.03365537
-1540.6167,0.035553005
-1538.689,0.016082235
-1536.7603,0.008595656
-1534.8325,0.02729534
-1532.9048,0.02832257
-1530.9761,0.011560835
-1529.0483,0.015694013
-1527.1201,0.011740581
-1525.1924,0.008753408
-1523.2642,0.015023524
-1521.3359,0.007753294
-1519.4082,0.05157578
-1517.4795,0.0208299
-1515.5518,0.008266909
-1513.624,0.013148426
-1511.6953,0.015024399
-1509.7676,0.020299036
-1507.8394,0.006786837
-1505.9111,0.02321925
-1503.9834,0.028498545
-1502.0552,0.042495687
-1500.1274,0.020292304
-1498.1987,0.0020120563
-1496.271,0.018400822
-1494.3433,0.029644987
-1492.4146,0.026233362
-1490.4868,0.016215252
-1488.5591,0.010021989
-1486.6304,0.010774059
-1484.7026,0.020541955
-1482.7744,0.023868443
-1480.8462,0.026734201
-1478.9185,0.021070974
-1476.9902,0.018140625
-1475.062,0.0077494364
-1473.1338,0.007388094
-1471.206,0.0036694286
-1469.2783,0.035560347
-1467.3496,0.043559685
-1465.4219,0.013073379
-1463.4932,0.039226744
-1461.5654,0.028108254
-1459.6377,0.043610547
-1457.7095,0.032899804
-1455.7812,0.0145467175
-1453.8535,0.0050911233
-1451.9253,0.044971004
-1449.9971,0.049309604
-1448.0688,0.0074338764
-1446.1411,0.004174837
-1444.2129,0.0068106125
-1442.2847,0.0305149
-1440.3569,0.0099249855
-1438.4282,4.7639592E-4
-1436.5005,0.01248393
-1434.5728,0.004263089
-1432.644,0.011569006
-1430.7163,0.025869846
-1428.7881,0.044407587
-1426.8604,0.033436723
-1424.9321,0.024366215
-1423.0039,0.018016605
-1421.0762,0.0046221754
-1419.148,0.02278645
-1417.2197,0.01847142
-1415.292,0.039260857
-1413.3633,0.036130972
-1411.4355,0.03692634
-1409.5078,0.019322935
-1407.5791,0.010629789
-1405.6514,0.0085511375
-1403.7231,0.009212161
-1401.7949,0.020276224
-1399.8672,0.0055589094
-1397.939,0.01672319
-1396.0112,0.027441323
-1394.0825,0.062438563
-1392.1548,0.037648134
-1390.227,0.012980264
-1388.2983,0.030634748
-1386.3706,0.029504545
-1384.4429,0.012638207
-1382.5142,0.018134901
-1380.5864,0.027797606
-1378.6582,0.035949793
-1376.73,0.04849774
-1374.8022,0.04472487
-1372.874,0.026847452
-1370.9458,0.040497307
-1369.0176,0.015764667
-1367.0898,0.011109072
-1365.1621,0.015083402
-1363.2334,0.016558215
-1361.3057,0.03106442
-1359.3774,0.0016818705
-1357.4492,0.030780325
-1355.5215,0.045143545
-1353.5933,0.05979855
-1351.665,0.06736175
-1349.7368,0.047550503
-1347.8091,0.0014971718
-1345.8809,0.01830781
-1343.9526,0.020540101
-1342.0249,0.017463792
-1340.0967,0.016406486
-1338.1685,0.01952562
-1336.2407,0.03006419
-1334.312,0.012409622
-1332.3843,0.013806068
-1330.4565,0.0307863
-1328.5283,0.019882321
-1326.6001,0.008279306
-1324.6719,0.014961654
-1322.7441,0.032959923
-1320.8159,0.0168522
-1318.8877,0.027389022
-1316.96,0.044291627
-1315.0312,0.028666329
-1313.1035,0.004043295
-1311.1758,0.017672397
-1309.2471,0.04354375
-1307.3193,0.024587564
-1305.3916,0.034502562
-1303.4629,0.021674657
-1301.5352,0.045454655
-1299.6069,0.033609394
-1297.6792,0.020293752
-1295.751,0.039270945
-1293.8228,0.0550615
-1291.895,0.059612963
-1289.9663,0.032743935
-1288.0386,0.0035139776
-1286.1108,0.020574057
-1284.1821,0.008959131
-1282.2544,0.0314522
-1280.3262,0.011849278
-1278.398,0.0149291875
-1276.4702,0.010679063
-1274.542,0.03062932
-1272.6138,0.018926378
-1270.686,0.013672945
-1268.7578,0.02953228
-1266.8301,0.03234158
-1264.9014,0.032317247
-1262.9736,0.01986686
-1261.0459,0.022121543
-1259.1172,0.00890944
-1257.1895,0.010739822
-1255.2612,0.009352099
-1253.333,0.0103099365
-1251.4053,0.0072083506
-1249.477,0.016221505
-1247.5488,0.017827393
-1245.6206,0.006272234
-1243.6929,0.043742467
-1241.7646,0.04238368
-1239.8364,0.010019052
-1237.9087,0.00952132
-1235.981,0.024015076
-1234.0522,0.029218657
-1232.1245,0.015403179
-1230.1958,0.011197904
-1228.2681,0.008601225
-1226.3403,0.032974977
-1224.4121,0.035366736
-1222.4839,0.030707087
-1220.5557,0.011725814
-1218.6279,0.026694464
-1216.6997,0.052303452
-1214.7715,0.04286049
-1212.8438,0.02372247
-1210.915,0.020055626
-1208.9873,0.016078437
-1207.0596,0.01936248
-1205.1309,0.034012526
-1203.2031,0.031739842
-1201.2749,0.025767574
-1199.3467,0.005531733
-1197.419,0.03890235
-1195.4907,0.05836202
-1193.563,0.04132201
-1191.6348,0.02027541
-1189.7065,0.04274649
-1187.7788,0.032450017
-1185.8501,0.0246867
-1183.9224,0.013137356
-1181.9946,0.03151361
-1180.0659,0.022598263
-1178.1382,0.020186815
-1176.21,0.018372945
-1174.2817,0.04422496
-1172.354,0.0080790045
-1170.4258,0.02073914
-1168.4976,0.019004054
-1166.5693,0.016923327
-1164.6416,0.02129524
-1162.7139,0.025838803
-1160.7852,0.010930654
-1158.8574,0.012868116
-1156.9297,0.014504136
-1155.001,0.0136525445
-1153.0732,0.03138474
-1151.145,0.03751351
-1149.2168,0.01584027
-1147.2891,0.053750116
-1145.3608,0.059375983
-1143.4326,0.04700025
-1141.5044,0.013069658
-1139.5767,0.00993285
-1137.6484,0.012463486
-1135.7202,0.024049131
-1133.7925,0.01814983
-1131.8638,0.036852453
-1129.936,0.019325426
-1128.0083,0.015863746
-1126.0801,0.033438537
-1124.1519,0.029484652
-1122.2241,0.038767867
-1120.2959,0.061547577
-1118.3677,0.0314188
-1116.4395,0.017385557
-1114.5117,0.04069529
-1112.5835,0.048320074
-1110.6553,0.033434965
-1108.7275,0.05218116
-1106.7988,0.0664594
-1104.8711,0.029633915
-1102.9434,0.0034063018
-1101.0146,0.024513172
-1099.0869,0.052733462
-1097.1587,0.040290326
-1095.231,0.034118246
-1093.3027,0.031169532
-1091.3745,0.0078753615
-1089.4468,0.016961385
-1087.5186,0.01093797
-1085.5903,0.025194641
-1083.6626,0.02695769
-1081.7339,0.018138316
-1079.8062,0.023223089
-1077.8784,0.03155528
-1075.9497,0.036931086
-1074.022,0.036064394
-1072.0938,0.041989803
-1070.1655,0.014582418
-1068.2378,0.02675053
-1066.3096,0.009167977
-1064.3818,0.023404554
-1062.4531,0.017815704
-1060.5254,0.0073766494
-1058.5977,0.015406287
-1056.669,0.027813578
-1054.7412,0.03315932
-1052.813,0.02152161
-1050.8848,0.027916979
-1048.957,0.005493094
-1047.0288,0.017405646
-1045.1006,0.025504429
-1043.1729,0.02916487
-1041.2446,7.4662257E-4
-1039.3164,0.019676922
-1037.3882,0.014328591
-1035.4604,0.025227092
-1033.5327,0.03198347
-1031.604,0.033721894
-1029.6763,0.040085025
-1027.7476,0.050149113
-1025.8198,0.030667778
-1023.8921,0.0052027134
-1021.96387,0.016685512
-1020.03564,0.045192763
-1018.1074,0.041902035
-1016.1797,0.01764851
-1014.25146,0.005741727
-1012.32324,0.005866847
-1010.3955,0.016443817
-1008.4673,0.014534531
-1006.53906,0.0053698006
-1004.6113,0.016649874
-1002.6826,0.026704589
-1000.7549,0.022274585
-998.82715,0.020446792
-996.89844,0.031721275
-994.9707,0.031660695
-993.0425,0.044622127
-991.11475,0.03997241
-989.1865,0.0179323
-987.2583,0.042880766
-985.33057,0.028643027
-983.40186,0.020936128
-981.4741,0.031221237
-979.5464,0.022610068
-977.6177,0.011401541
-975.68994,0.025191529
-973.7622,0.04205909
-971.8335,0.046391737
-969.90576,0.054737344
-967.97754,0.02738911
-966.0493,0.023033455
-964.1216,0.0360601
-962.19336,0.0452292
-960.2656,0.03404585
-958.3369,0.026779953
-956.4092,0.031614475
-954.48145,0.040898774
-952.55273,0.025168426
-950.625,0.042033743
-948.6968,0.036500253
-946.76855,0.029616518
-944.8408,0.014960731
-942.9126,0.021377826
-940.9844,0.04246298
-939.05664,0.03796232
-937.1284,0.043601204
-935.2002,0.009573528
-933.272,0.019828517
-931.34424,0.026946243
-929.4165,0.013667926
-927.4878,0.021630047
-925.56006,0.03392655
-923.63184,0.036838718
-921.7036,0.007990476
-919.7759,0.013759052
-917.84766,0.015637778
-915.91943,0.021482104
-913.9912,0.0119600035
-912.0635,0.026332784
-910.13525,0.029852552
-908.20703,0.027269602
-906.2793,0.017441593
-904.3506,0.021933539
-902.42285,0.010609751
-900.4951,0.031955548
-898.5664,0.043146342
-896.6387,0.027829552
-894.71094,0.006873337
-892.7827,0.023780862
-890.8545,0.034789424
-888.9263,0.019570379
-886.99854,0.047394127
-885.0703,0.05239585
-883.1421,0.03946731
-881.21436,0.030607315
-879.28564,0.064504996
-877.3579,0.073187895
-875.4302,0.04423235
-873.50146,0.061842043
-871.5737,0.07712586
-869.6455,0.08786975
-867.7173,0.083097585
-865.78955,0.0692837
-863.8613,0.10907066
-861.9336,0.12786917
-860.0054,0.1391228
-858.07715,0.12796701
-856.1494,0.10748038
-854.2207,0.07135116
-852.29297,0.0716853
-850.36523,0.08565597
-848.4365,0.09850327
-846.5088,0.08910795
-844.58057,0.07294866
-842.65234,0.08270417
-840.7246,0.1001417
-838.7964,0.09485247
-836.86816,0.101148814
-834.93994,0.09736804
-833.0122,0.09734569
-831.0845,0.09081281
-829.15576,0.07192762
-827.228,0.06932219
-825.3003,0.048975714
-823.3716,0.067891486
-821.44385,0.07361555
-819.5156,0.058151327
-817.5874,0.044502784
-815.65967,0.02025542
-813.73145,0.0079615135
-811.8032,0.048383437
-809.875,0.047911435
-807.94727,0.027775064
-806.01904,0.055865593
-804.0908,0.096989915
-802.1631,0.2690075
-800.2344,0.64284486
-798.30664,0.75955987
-796.3789,0.4898941
-794.4502,0.25000784
-792.52246,0.14821026
-790.59424,0.101825334
-788.6665,0.077262744
-786.7383,0.06582532
-784.81006,0.061257925
-782.8823,0.06443966
-780.9541,0.05544111
-779.0259,0.062047165
-777.09814,0.042673383
-775.16943,0.034715742
-773.2417,0.031229768
-771.31396,0.032425776
-769.38525,0.022995407
-767.4575,0.014244834
-765.5293,0.029106956
-763.6011,0.048058383
-761.67334,0.046420343
-759.7451,0.032692075
-757.8174,0.034502156
-755.8887,0.059973363
-753.96094,0.08576744
-752.0332,0.0843349
-750.1045,0.07041796
-748.17676,0.035156418
-746.249,0.03205398
-744.3203,0.012636745
-742.3926,0.039502677
-740.46436,0.056374215
-738.53613,0.061078157
-736.6084,0.049040813
-734.6802,0.016300749
-732.75244,0.020108718
-730.8237,0.036996204
-728.896,0.040538236
-726.96826,0.033647984
-725.03955,0.04678
-723.1118,0.050041642
-721.1836,0.0499352
-719.2554,0.017397502
-717.32764,0.005845482
-715.3994,0.013939203
-713.4712,0.039063346
-711.54346,0.032620788
-709.61523,0.024492836
-707.687,0.047953323
-705.7588,0.04983448
-703.83105,0.052657545
-701.9033,0.04345129
-699.9746,0.010358602
-698.0469,0.012577415
-696.11816,0.032889556
-694.1904,0.041657355
-692.2627,0.016141368
-690.3345,0.01858349
-688.40625,0.0058477134
-686.478,0.050451096
-684.5503,0.0483005
-682.6221,0.038908664
-680.69385,0.030780219
-678.7661,0.031389065
-676.8379,0.017681176
-674.90967,0.032988515
-672.98193,0.021396141
-671.0532,0.029100215
-669.1255,0.033998214
-667.19775,0.04323298
-665.26904,0.04944536
-663.3413,0.05288973
-661.4131,0.05196307
-659.48535,0.053425234
-657.5571,0.03262189
-655.6289,0.028071498
-653.7012,0.038038794
-651.77246,0.071753874
-649.8447,0.062041417
-647.917,0.023111684
-645.9883,0.014911242
-644.06055,0.024616927
-642.1323,0.0284511
-640.2041,0.051224038
-638.27637,0.058325905
-636.34814,0.057226714
-634.4199,0.04039709
-632.4922,0.017637959
-630.56396,0.039272524
-628.6362,0.079161815
-626.7075,0.06965725
-624.7798,0.05449168
-622.85205,0.0420458
-620.92334,0.03253386
-618.9956,0.059352532
-617.0674,0.09150428
-615.13916,0.070216775
-613.21094,0.05873491
-611.2832,0.03652083
-609.355,0.036444005
-607.42725,0.03246696
-605.499,0.048722386
-603.5708,0.036887217
-601.64307,0.04806089
-599.71484,0.06379556
-597.7866,0.05115324
-595.8584,0.047232762
-593.93066,0.045269653
-592.00244,0.034487862
-590.0742,0.050895117
-588.146,0.10468309
-586.21826,0.08937671
-584.29004,0.03294179
-582.3618,0.036067646
-580.4341,0.048235286
-578.50586,0.02601877
-576.57764,0.029446058
-574.6499,0.029784977
-572.7217,0.036524355
-570.79346,0.038704842
-568.86523,0.024950314
-566.9375,0.042256527
-565.0093,0.07304724
-563.08105,0.07577465
-561.1533,0.054065786
-559.2251,0.073068775
-557.2969,0.08519051
-555.36914,0.059623346
-553.4409,0.06266056
-551.5127,0.061713595
-549.58496,0.06207217
-547.65674,0.043990213
-545.7285,0.027282754
-543.8003,0.039807256
-541.8721,0.07450797
-539.94434,0.071582496
-538.0161,0.033247437
-536.0879,0.042673092
-534.16016,0.0688066
-532.23193,0.06705821
-530.3042,0.05922976
-528.376,0.055018418
-526.44775,0.060144156
-524.51953,0.08855287
-522.5918,0.09713051
-520.6636,0.07585432
-518.73535,0.06499505
-516.8071,0.08609478
-514.8794,0.09185292
-512.9512,0.09801516
-511.02295,0.115907855
-509.0952,0.101000585
-507.167,0.060237125
-505.23877,0.07042159
-503.31104,0.07648133
-501.3828,0.1055197
-499.4546,0.113266945
-497.52686,0.11613201
-495.59863,0.09874672
-493.6704,0.07506871
-491.7422,0.07883742
-489.81396,0.07626596
-487.88623,0.053020235
-485.958,0.049755614
-484.0298,0.085509814
-482.10205,0.10159822
-480.17383,0.07144974
-478.2461,0.07932608
-476.31787,0.10020566
-474.38965,0.12233654
-472.46143,0.12697233
-470.5337,0.11861321
-468.60547,0.13212396
-466.67725,0.1524309
-464.74902,0.101076595
-462.8213,0.0672385
-460.89307,0.086283505
-458.96484,0.09857905
-457.0371,0.09466884
-455.1089,0.10955612
-453.18066,0.11787569
-451.25293,0.12567471
-449.3247,0.1234326
-447.39648,0.14610817
-445.46875,0.12533452
-443.54053,0.108969904
-441.6123,0.14735268
-439.68408,0.14592656
-437.75586,0.1415274
-435.82812,0.1587309
-433.8999,0.18299095
-431.97168,0.17847848
-430.04395,0.20565186
-428.11572,0.27642915
-426.188,0.32138607
-424.25977,0.3412083
-422.33154,0.35655466
-420.40332,0.36062005
-418.4756,0.3244098
-416.54736,0.27576527
-414.61914,0.2596644
-412.69092,0.24020457
-410.7627,0.21958238
-408.83496,0.22032002
-406.90674,0.2138546
-404.979,0.21993005
-403.05078,0.19949372
-401.12256,0.16240993
-399.19482,0.12515281
-397.2666,0.13884832
-395.33838,0.15394853
-393.41016,0.15009624
-391.48242,0.14153606
-389.5542,0.14911602
-387.62598,0.16005947
-385.69775,0.19859003
-383.77002,0.22354016
-381.8418,0.24639803
-379.91357,0.2511076
-377.98584,0.25239173
-376.05762,0.24983795
-374.12988,0.2708911
-372.20166,0.2619233
-370.27344,0.23603958
-368.3452,0.23997363
-366.41748,0.2543842
-364.48926,0.2477337
-362.56104,0.22039321
-360.6328,0.16753677
-358.70508,0.14247485
-356.77686,0.1490006
-354.84863,0.11448839
-352.9209,0.072994865
-350.99268,0.07079374
-349.06494,0.08354005
-347.13672,0.10681553
-345.2085,0.117644966
-343.28027,0.1137442
-341.35205,0.093872376
-339.42432,0.086922124
-337.4961,0.11135692
-335.56787,0.15761195
-333.63965,0.167832
-331.7119,0.13169847
-329.7837,0.08449325
-327.85596,0.09355221
-325.92773,0.10354353
-323.9995,0.08842862
-322.07178,0.053143457
-320.14355,0.054227214
-318.21533,0.03875304
-316.2871,0.03687262
-314.35938,0.045804556
-312.43115,0.038273938
-310.50293,0.008373682
-308.5747,0.042716987
-306.64697,0.051121127
-304.71875,0.018629735
-302.79053,0.041427143
-300.8628,0.029864969
-298.93457,0.018773519
-297.00635,0.007451816
-295.0786,0.02941047
-293.1504,0.021943776
-291.22217,0.030787064
-289.29395,0.023047613
-287.3662,0.006337047
-285.438,0.028348153
-283.50977,0.022996131
-281.58154,0.018411295
-279.6538,0.031727348
-277.7256,0.027617013
-275.79785,0.020532258
-273.86963,0.012728773
-271.9414,0.02934534
-270.01367,0.021591209
-268.08545,0.037407257
-266.15723,0.03690777
-264.229,0.027404739
-262.30078,0.017350376
-260.37305,0.03066897
-258.44482,0.0069400053
-256.5166,0.021431299
-254.58887,0.028272789
-252.66064,0.030473243
-250.73242,0.0033062915
-248.80469,0.022574622
-246.87646,0.023077322
-244.94824,0.011420367
-243.02051,0.019596139
-241.09229,0.01077827
-239.16406,0.03029492
-237.23584,0.020601034
-235.3081,0.015775928
-233.37988,0.021738071
-231.45166,0.0071705305
-229.52344,0.033587962
-227.5957,0.014608735
-225.66748,0.014366075
-223.73975,0.024778394
-221.81152,0.01858967
-219.8833,0.0059210616
-217.95557,0.0138431
-216.02734,0.033766177
-214.09912,0.04174999
-212.1709,0.02088161
-210.24268,0.024324981
-208.31494,0.047776412
-206.38672,0.040301267
-204.4585,0.0186647
-202.53076,0.027527614
-200.60254,0.018529521
-198.67432,0.037103888
-196.74658,0.035222154
-194.81836,0.025828158
-192.89014,0.0059375693
-190.9624,0.03517628
-189.03418,0.02401741
-187.10596,0.02198869
-185.17773,0.02379463
-183.25,0.024338018
-181.32178,0.019982027
-179.39355,0.03667092
-177.46582,0.039649375
-175.5376,0.031479266
-173.60938,0.014329795
-171.68164,0.020223798
-169.75342,0.026016919
-167.8252,0.025797522
-165.89746,0.023001704
-163.96924,0.021062298
-162.04102,0.0035141234
-160.1128,0.01828427
-158.18457,0.045240298
-156.25684,0.04953185
-154.32861,0.031786412
-152.40039,0.023595322
-150.47266,0.025773836
-148.54443,0.017294765
-146.6167,0.008307586
-144.68848,0.012361643
-142.76025,0.015316917
-140.83203,0.022136873
-138.9043,0.026740422
-136.97607,0.046855733
-135.04785,0.032089207
-133.11963,0.0074654366
-131.1914,0.014891002
-129.26367,0.039877113
-127.33545,0.024514602
-125.407715,0.019628873
-123.47949,0.017877722
-121.55127,0.037237663
-119.623535,0.026261017
-117.69531,0.015443832
-115.76709,0.025260517
-113.83887,0.0133411605
-111.91113,0.014116326
-109.98291,0.010331796
-108.05469,0.009887654
-106.126465,0.015835298
-104.19873,0.009412242
-102.27051,0.027201977
-100.342285,0.026501026
-98.41431,0.02372579
-96.48633,0.03444079
-94.55835,0.053639982
-92.63013,0.050223105
-90.70215,0.044069316
-88.773926,0.045867212
-86.84619,0.034498066
-84.91797,0.058529988
-82.989746,0.032960553
-81.06177,0.049559448
-79.133545,0.06475544
-77.20557,0.029978702
-75.27759,0.020146156
-73.349365,0.016809756
-71.42114,0.021129517
-69.49341,0.023545813
-67.565186,0.03673002
-65.63721,0.02800172
-63.708984,0.049313504
-61.78076,0.06768225
-59.853027,0.011406562
-57.924805,0.019359753
-55.996582,0.02662282
-54.068604,0.022632431
-52.140625,0.013103074
-50.212646,0.017100152
-48.284424,0.022721825
-46.3562,0.029618483
-44.428223,0.020678187
-42.500244,0.009609035
-40.57202,0.022277601
-38.644043,0.01626351
-36.71582,0.014244819
-34.788086,0.045183677
-32.859863,0.03303785
-30.93164,0.02592353
-29.003662,0.032191336
-27.07544,0.027595444
-25.14746,0.0606461
-23.219482,0.06912956
-21.29126,0.047135923
-19.363037,0.013434697
-17.435059,0.015148248
-15.50708,0.028806593
-13.579102,0.045644626
-11.650879,0.03864031
-9.722656,0.035834
-7.794922,0.035024833
-5.866699,0.0073907147
-3.9384766,0.049501617
-2.010498,0.2840241
-0.08227539,7.41519
1.845459,17.948391
3.7736816,12.305605
5.7019043,2.5973344
7.629883,0.14334998
9.557861,0.15754639
11.486084,0.269242
13.4140625,0.2515353
15.342285,0.23464884
17.270264,0.24940853
19.198242,0.34680384
21.126465,0.36903813
23.054443,0.28497642
24.982666,0.18096614
26.9104,0.1181435
28.838623,0.0665188
30.766846,0.07366411
32.694824,0.03628604
34.623047,0.02443398
36.551025,0.014715668
38.479004,0.017625222
40.407227,0.0112442095
42.33545,0.010263454
44.263184,0.028881272
46.191406,0.0062462175
48.119385,0.032725975
50.047607,0.051987164
51.97583,0.041157864
53.903564,0.036246855
55.831787,0.030433942
57.76001,0.039731767
59.68799,0.038143627
61.615967,0.03568866
63.543945,0.023119777
65.47217,0.03537857
67.40039,0.026774354
69.32837,0.02317748
71.25635,0.016054615
73.18457,0.047988527
75.11255,0.04681894
77.04077,0.021345694
78.968506,0.015169587
80.89673,0.021440256
82.82495,0.036334258
84.75293,0.02914829
86.68115,0.034916166
88.60913,0.04713781
90.53711,0.046485588
92.46533,0.055119406
94.393555,0.05338718
96.32129,0.045109596
98.24951,0.03572567
100.17749,0.05652265
102.10571,0.062581606
104.033936,0.06362508
105.96167,0.08054432
107.88989,0.15990569
109.818115,0.21905284
111.74609,0.26241776
113.67407,0.32859498
115.60205,0.42675298
117.53027,0.49371815
119.458496,0.5130038
121.386475,0.531802
123.31445,0.52910584
125.242676,0.469706
127.170654,0.45942378
129.09888,0.4649291
131.0271,0.42533198
132.95483,0.36077005
134.88306,0.35900748
136.81104,0.40265328
138.73926,0.43882135
140.66724,0.48271763
142.59521,0.5139596
144.52344,0.52347493
146.45166,0.582383
148.37964,0.6712962
150.30762,0.7191224
152.2356,0.7452471
154.16382,0.79123783
156.09204,0.78928477
158.01978,0.76397634
159.948,0.7626733
161.87622,0.78945935
163.8042,0.7572785
165.73242,0.7150091
167.66016,0.70222557
169.58838,0.68229026
171.5166,0.64746004
173.44458,0.65904206
175.37256,0.6453045
177.30078,0.6392762
179.22876,0.6629012
181.15698,0.717308
183.08496,0.7464713
185.01294,0.7572963
186.94116,0.7948111
188.86914,0.83419895
190.79736,0.83806694
192.72534,0.8240322
194.65332,0.83190733
196.58154,0.8538152
198.50952,0.86592364
200.43774,0.8735206
202.36572,0.8537709
204.2937,0.8372433
206.22192,0.8154025
208.15015,0.79489917
210.07788,0.764138
212.0061,0.7583534
213.93408,0.761446
215.8623,0.7823869
217.79053,0.78363013
219.71826,0.78728545
221.64648,0.7771137
223.5747,0.82566035
225.50269,0.8287785
227.43066,0.8183985
229.35864,0.85998064
231.28687,0.89943105
233.21509,0.9205508
235.14307,0.94496197
237.07104,0.95611686
238.99927,0.97372377
240.92725,0.99104816
242.85547,1.0091684
244.7832,0.9912988
246.71143,0.98216176
248.63965,0.9820583
250.56763,0.979905
252.49585,0.9848011
254.42383,1.0089539
256.3518,0.98195225
258.28003,0.9574481
260.20825,0.9359715
262.13623,0.94359875
264.0642,0.9475311
265.9922,0.9389478
267.9204,0.9327238
269.84863,0.92921203
271.77637,0.91974354
273.7046,0.90996623
275.6328,0.94748634
277.5608,0.9770389
279.489,0.9457919
281.41675,0.95334053
283.34497,0.9687712
285.2732,0.9850967
287.20117,0.9923625
289.12915,0.99372625
291.05737,0.96228164
292.98535,0.95732194
294.91357,0.966383
296.8418,0.9596771
298.76953,0.9461404
300.69775,0.9595827
302.62573,0.96479315
304.55396,0.967264
306.48193,0.93736863
308.4099,0.8921352
310.33813,0.88010263
312.26636,0.90433776
314.19434,0.9093895
316.1223,0.93204594
318.0503,0.919684
319.97852,0.9122014
321.90674,0.91985905
323.83447,0.9080591
325.7627,0.9245546
327.69092,0.946797
329.6189,0.92665386
331.54712,0.9206268
333.47485,0.91092515
335.40308,0.9373407
337.3313,0.9495799
339.25928,0.96532696
341.18726,0.94011223
343.11548,0.9491374
345.04346,0.967132
346.97168,0.9763168
348.8999,1.0061501
350.82764,1.0318865
352.75586,1.027299
354.68384,1.0579334
356.61206,1.0932698
358.54004,1.1306138
360.46802,1.1378185
362.39624,1.1841642
364.32446,1.2166432
366.25244,1.2448704
368.18042,1.2986008
370.1084,1.4044901
372.03662,1.528388
373.96484,1.7068268
375.89258,1.8887719
377.8208,2.1704707
379.74902,2.547942
381.677,3.033754
383.60522,3.5442584
385.53296,3.8739963
387.46118,3.6735115
389.3894,3.0855362
391.31738,2.4909286
393.24536,2.0591323
395.17358,1.7813814
397.10156,1.646701
399.0298,1.5758978
400.95776,1.5487801
402.88574,1.5022689
404.81396,1.4830295
406.74194,1.490684
408.67017,1.5333652
410.5984,1.6106164
412.52612,1.7040305
414.45435,1.8152592
416.38232,1.9791534
418.31055,2.2060976
420.23853,2.588352
422.1665,3.1422112
424.09473,3.9119606
426.02295,4.69312
427.95093,5.068041
429.8789,4.8104277
431.8069,4.126381
433.7351,3.3516197
435.66333,2.7588494
437.59106,2.3572884
439.5193,2.0809145
441.4475,1.9007021
443.3755,1.8163388
445.3037,1.727876
447.23145,1.6471547
449.15967,1.5641153
451.0879,1.5196556
453.01587,1.491612
454.94385,1.4702549
456.87207,1.4430827
458.80005,1.4564768
460.72827,1.446547
462.6565,1.4041685
464.58423,1.3677459
466.51245,1.4117099
468.44043,1.442307
470.36865,1.4394875
472.29663,1.4579538
474.2246,1.5102507
476.15283,1.5521975
478.08105,1.5544381
480.00903,1.5421301
481.937,1.5074732
483.865,1.4343725
485.7932,1.384168
487.72144,1.3294365
489.64917,1.2906206
491.5774,1.2648808
493.5056,1.2683184
495.4336,1.2376237
497.36182,1.2269511
499.28955,1.1943636
501.21777,1.1762041
503.146,1.1896715
505.07397,1.1841522
507.00195,1.1481408
508.93018,1.096634
510.85815,1.0347768
512.7864,1.0786012
514.7146,1.110449
516.64233,1.0968219
518.57056,1.0587704
520.49854,1.0774673
522.42676,1.0707273
524.35474,1.0617709
526.2827,1.0651784
528.21094,1.0557936
530.13916,1.0195949
532.06714,1.0209327
533.9951,1.0047685
535.9231,0.99995446
537.8513,0.95309615
539.77954,0.920444
541.7075,0.93625134
543.6355,0.96057755
545.5637,0.9425746
547.4917,0.9634825
549.4199,0.96316683
551.34766,0.97066605
553.2759,0.9543295
555.2041,0.94349027
557.1321,0.93742144
559.0603,0.94284916
560.9883,0.9309387
562.91626,0.95386106
564.8445,0.9322401
566.77246,0.94892794
568.70044,0.95209956
570.62866,0.9108252
572.55664,0.86307204
574.48486,0.88186604
576.4131,0.8652703
578.3408,0.84447145
580.26904,0.83056355
582.197,0.8277461
584.12524,0.84608275
586.0532,0.8827039
587.9812,0.85412705
589.9094,0.8633466
591.83765,0.8423945
593.7656,0.8251591
595.6936,0.8406361
597.6216,0.8660032
599.5498,0.86848515
601.478,0.8879303
603.40576,0.8525382
605.334,0.8622555
607.2622,0.88087016
609.1902,0.9038131
611.1184,0.8706086
613.04614,0.8404316
614.97437,0.8507363
616.9026,0.87403697
618.83057,0.8471763
620.75854,0.8397906
622.68677,0.8138376
624.61475,0.8288552
626.54297,0.818486
628.4712,0.8640202
630.3989,0.88275987
632.32715,0.9155999
634.2551,0.9232153
636.18335,0.91716075
638.1113,0.8816291
640.0393,0.8780183
641.9675,0.88312465
643.89575,0.9147801
645.8237,0.8992336
647.7517,0.88826895
649.6797,0.8714986
651.6079,0.86618394
653.53613,0.8301482
655.46387,0.838817
657.3921,0.8237308
659.3203,0.8564493
661.2483,0.8525849
663.1765,0.85394275
665.10425,0.8163052
667.0325,0.8340865
668.9607,0.8262202
670.8887,0.8625322
672.81665,0.86171526
674.7449,0.85237527
676.67285,0.8375864
678.6011,0.8443084
680.5293,0.8025456
682.45703,0.79744476
684.38525,0.8125443
686.31323,0.86059654
688.24146,0.8213862
690.1697,0.82446176
692.0974,0.81343555
694.02563,0.83043754
695.95386,0.82369804
697.88184,0.85047233
699.8098,0.8309332
701.7378,0.86710435
703.666,0.8594037
705.59424,0.86388403
707.5222,0.7879437
709.4502,0.8052689
711.3784,0.8359541
713.3064,0.86836386
715.2346,0.83551407
717.16235,0.86069727
719.0906,0.8387652
721.0188,0.85059136
722.9468,0.8601037
724.875,0.92845255
726.803,0.9145006
728.73096,0.90457314
730.6592,0.8226561
732.5874,0.8600262
734.51514,0.884573
736.44336,0.92551947
738.37134,0.903824
740.29956,0.9470598
742.2278,0.91844314
744.1555,0.9458819
746.08374,0.91489154
748.01196,1.0150832
749.93994,1.0353142
751.8679,1.0824699
753.7959,1.0565704
755.7241,1.1224996
757.65234,1.090208
759.5803,1.159965
761.5083,1.1961707
763.4365,1.3469125
765.3645,1.3384776
767.2927,1.4064145
769.22046,1.4015133
771.1487,1.5824898
773.0769,1.6176937
775.0049,1.7992896
776.9331,1.8484831
778.8611,2.08077
780.78906,2.2101915
782.7173,2.5931091
784.64526,2.855331
786.57324,3.3371835
788.50146,3.5671377
790.42944,4.048628
792.35767,4.5144773
794.2859,6.393856
796.2136,10.366482
798.14185,18.164806
800.0698,40.401295
801.99805,88.02909
803.926,101.60445
805.854,55.565357
807.7822,18.952154
809.71045,7.8085384
811.6384,5.0747304
813.5664,3.630215
815.4944,2.9773688
817.4226,2.3551552
819.3508,2.192742
821.27856,1.9477408
823.2068,1.9157101
825.135,1.6604251
827.063,1.623882
828.9912,1.4884493
830.91895,1.4535258
832.84717,1.3238059
834.7754,1.3468201
836.70337,1.2802852
838.6316,1.312307
840.5596,1.1705716
842.48755,1.1776556
844.4158,1.1516881
846.344,1.213576
848.2717,1.1876887
850.19995,1.2705824
852.1279,1.292388
854.05615,1.338546
855.9844,1.2194095
857.9121,1.1632471
859.84033,1.0877937
861.76855,1.0742087
863.69653,0.99045396
865.6245,0.9941205
867.5525,0.9170116
869.4807,0.9279839
871.40894,0.9186109
873.3369,0.97513866
875.2649,0.9220245
877.1931,0.91702145
879.1211,0.88023114
881.0493,0.8868959
882.97705,0.8255207
884.9053,0.8599618
886.8335,0.8644178
888.7615,0.84917456
890.6897,0.79701984
892.6177,0.82584417
894.54565,0.8375253
896.4739,0.9248788
898.4021,0.92743975
900.32983,0.90112114
902.25806,0.8801786
904.18604,0.9150352
906.11426,0.89754784
908.0425,0.91945386
909.9702,0.87914616
911.89844,0.8623074
913.82666,0.84207785
915.75464,0.82376015
917.6826,0.7358463
919.6106,0.7211888
921.5388,0.69526416
923.46704,0.7242088
925.395,0.69087297
927.323,0.7100015
929.2512,0.71760815
931.1792,0.7002195
933.1074,0.625951
935.03516,0.6277901
936.9634,0.60788083
938.8916,0.59594476
940.8196,0.5771246
942.7478,0.580139
944.6758,0.5539378
946.60376,0.5597776
948.532,0.55507314
950.45996,0.5761355
952.38794,0.55694103
954.31616,0.56681204
956.24414,0.5244931
958.17236,0.5244477
960.1006,0.52791286
962.0283,0.56316924
963.95654,0.55667233
965.8845,0.60179096
967.81274,0.60226506
969.74097,0.6109856
971.6687,0.5749153
973.5969,0.6133486
975.52515,0.6638583
977.4531,0.7059508
979.3811,0.73299944
981.3091,0.802504
983.2373,0.8237333
985.1655,0.8383328
987.0935,0.8416386
989.0215,0.9116445
990.9497,0.99856293
992.8777,1.1028851
994.8059,1.174156
996.73364,1.2373018
998.66187,1.2629488
1000.5901,1.3829341
1002.51807,1.4989601
1004.4463,1.6443044
1006.37427,1.8567708
1008.30225,2.0850363
1010.23047,2.3049557
1012.1587,2.6583405
1014.0864,3.072538
1016.01465,3.655221
1017.9426,4.398908
1019.87085,5.4024734
1021.7991,6.7367253
1023.7268,8.468818
1025.655,10.576419
1027.5833,12.608706
1029.5112,13.565964
1031.4392,12.8766985
1033.3672,10.916684
1035.2954,8.684523
1037.2236,6.768307
1039.1516,5.3327703
1041.0796,4.260775
1043.0078,3.5224218
1044.9358,2.9474494
1046.864,2.5016289
1048.7917,2.165912
1050.72,1.8934385
1052.6482,1.6509384
1054.5762,1.5160218
1056.5044,1.3949893
1058.4324,1.2699802
1060.3604,1.1513562
1062.2886,1.0694808
1064.2168,0.9513434
1066.1445,0.8897947
1068.0728,0.82226837
1070.0007,0.80343264
1071.929,0.77998966
1073.8572,0.7320528
1075.7849,0.6643819
1077.7131,0.65659636
1079.6414,0.6524651
1081.5693,0.631921
1083.4973,0.5990952
1085.4253,0.5996378
1087.3535,0.58444107
1089.2817,0.5634248
1091.2097,0.5298206
1093.1377,0.5354126
1095.0659,0.5435107
1096.9939,0.5631148
1098.9221,0.53650045
1100.8499,0.54276323
1102.7781,0.53471667
1104.7063,0.5569886
1106.6343,0.5527049
1108.5625,0.5513934
1110.4905,0.52252454
1112.4185,0.52763855
1114.3467,0.51438415
1116.2749,0.5280456
1118.2029,0.5446181
1120.1309,0.5476753
1122.0588,0.5225668
1123.987,0.5227621
1125.9153,0.5397741
1127.843,0.57948923
1129.7712,0.5498298
1131.6995,0.5503394
1133.6274,0.581292
1135.5557,0.6024021
1137.4834,0.57466966
1139.4116,0.60787606
1141.3398,0.66132385
1143.2678,0.72778517
1145.1958,0.74339765
1147.124,0.77009875
1149.052,0.8087496
1150.9802,0.95258135
1152.9082,1.2020391
1154.8362,1.7268498
1156.7644,2.8396962
1158.6924,4.5462317
1160.6206,4.4199247
1162.5486,2.4944613
1164.4766,1.3190256
1166.4048,1.0023109
1168.3328,0.87069744
1170.261,0.74759185
1172.189,0.65688545
1174.117,0.6325015
1176.0452,0.575251
1177.9734,0.5283202
1179.9011,0.50530064
1181.8293,0.49301332
1183.7573,0.5117214
1185.6855,0.5588804
1187.6138,0.5216005
1189.5415,0.4672689
1191.4697,0.4843493
1193.398,0.4980824
1195.3259,0.47832075
1197.2539,0.48861763
1199.1819,0.49538815
1201.1101,0.50524026
1203.0383,0.51190054
1204.9663,0.54254377
1206.8943,0.5971691
1208.8225,0.6259418
1210.7505,0.6593424
1212.6787,0.720637
1214.6064,0.74291307
1216.5347,0.75361013
1218.4629,0.7770085
1220.3909,0.82699096
1222.3191,0.8899339
1224.2471,0.9381715
1226.175,0.97171503
1228.1033,1.0190533
1230.0315,1.0919598
1231.9592,1.1833422
1233.8875,1.2531283
1235.8154,1.3347145
1237.7437,1.4599526
1239.6719,1.6378169
1241.5996,1.8076464
1243.5278,2.0069916
1245.456,2.2726152
1247.384,2.620239
1249.3123,2.993578
1251.24,3.4590611
1253.1682,4.0562983
1255.0964,4.833222
1257.0244,5.8856735
1258.9524,7.3238482
1260.8806,9.331615
1262.8086,12.015329
1264.7368,15.093858
1266.665,17.602266
1268.5928,18.136824
1270.521,16.422087
1272.449,13.606911
1274.3772,10.948368
1276.3052,8.852115
1278.2332,7.246569
1280.1614,6.02842
1282.0896,5.1642327
1284.0176,4.493409
1285.9456,3.9518597
1287.8735,3.5321999
1289.8018,3.1819918
1291.73,2.8918107
1293.6577,2.6743
1295.5859,2.470846
1297.5142,2.3034103
1299.4421,2.1874685
1301.3704,2.1147687
1303.2981,1.9933852
1305.2263,1.877334
1307.1545,1.7823104
1309.0825,1.7481413
1311.0105,1.701439
1312.9387,1.6623077
1314.8667,1.6548694
1316.7949,1.6574183
1318.7229,1.6227566
1320.6509,1.6099368
1322.5791,1.6109223
1324.5071,1.6637912
1326.4353,1.7213482
1328.3633,1.7847962
1330.2913,1.8551611
1332.2195,1.9584411
1334.1475,2.0796258
1336.0757,2.2461987
1338.0037,2.5007727
1339.9316,2.8063781
1341.8599,3.1377392
1343.7881,3.5595236
1345.7158,4.003754
1347.644,4.3120937
1349.572,4.326606
1351.5002,4.0798144
1353.4285,3.7361052
1355.3562,3.3673239
1357.2844,2.9867618
1359.2126,2.6236136
1361.1406,2.3223963
1363.0686,2.1030774
1364.9966,1.931153
1366.9248,1.8478124
1368.853,1.7589569
1370.781,1.6589521
1372.709,1.5868709
1374.6372,1.5539813
1376.5652,1.5493454
1378.4934,1.5374551
1380.4211,1.4933472
1382.3494,1.4742887
1384.2776,1.4934419
1386.2056,1.5139357
1388.1338,1.5346125
1390.0618,1.5691869
1391.9897,1.596781
1393.918,1.5907129
1395.8462,1.589437
1397.7742,1.6585557
1399.7021,1.7048857
1401.6301,1.7557827
1403.5583,1.8433233
1405.4866,1.9630334
1407.4143,2.0783145
1409.3425,2.2168126
1411.2708,2.3462648
1413.1987,2.5713933
1415.127,2.8561285
1417.0547,3.189809
1418.9829,3.6022103
1420.9111,4.139404
1422.8391,4.741729
1424.7671,5.3813086
1426.6953,6.0281296
1428.6233,6.632242
1430.5515,7.1838036
1432.4797,7.883612
1434.4075,8.87848
1436.3357,10.2652645
1438.2637,12.261928
1440.1919,15.061883
1442.1199,18.35329
1444.0479,21.093145
1445.9761,21.824564
1447.9043,20.159344
1449.8323,17.143438
1451.7603,14.087452
1453.6882,11.58705
1455.6165,9.670963
1457.5447,8.212578
1459.4724,7.108189
1461.4006,6.2909865
1463.3289,5.821822
1465.2568,5.8812423
1467.185,6.0803733
1469.1128,5.41846
1471.041,4.376034
1472.9692,3.725908
1474.8972,3.358413
1476.8252,3.1164956
1478.7534,2.9684284
1480.6814,2.8550496
1482.6096,2.7975492
1484.5378,2.7711139
1486.4656,2.6943727
1488.3938,2.5719106
1490.3218,2.4434721
1492.25,2.2816434
1494.178,2.142097
1496.106,2.0251942
1498.0342,1.9489665
1499.9624,1.8568208
1501.8904,1.7386742
1503.8184,1.6496671
1505.7463,1.5892807
1507.6746,1.5308973
1509.6028,1.5022566
1511.5305,1.4551002
1513.4587,1.4332815
1515.387,1.380225
1517.315,1.3423768
1519.2432,1.3032802
1521.1709,1.2823026
1523.0991,1.2667942
1525.0273,1.2232926
1526.9553,1.1682664
1528.8833,1.1690648
1530.8115,1.2069386
1532.7395,1.2489241
1534.6677,1.2752167
1536.5957,1.3041686
1538.5237,1.3088497
1540.4519,1.3236928
1542.3799,1.3045828
1544.3081,1.2733418
1546.2363,1.2415721
1548.1641,1.1885346
1550.0923,1.1464621
1552.0203,1.1445004
1553.9485,1.1488894
1555.8765,1.1540921
1557.8044,1.1520035
1559.7327,1.1575943
1561.6609,1.1730014
1563.5889,1.1690574
1565.5168,1.155077
1567.4448,1.2073882
1569.373,1.2178515
1571.3013,1.2655495
1573.229,1.2886212
1575.1572,1.2170655
1577.0854,1.1492637
1579.0134,1.1494904
1580.9417,1.1818488
1582.8694,1.1682302
1584.7976,1.152676
1586.7258,1.1502163
1588.6538,1.1375142
1590.5818,1.1404073
1592.51,1.1302444
1594.438,1.1099637
1596.3662,1.1163334
1598.2944,1.1199666
1600.2222,1.1075462
1602.1504,1.0852057
1604.0784,1.040421
1606.0066,1.0723661
1607.9346,1.1066521
1609.8625,1.1245677
1611.7908,1.0883976
1613.719,1.0590813
1615.647,1.0797484
1617.575,1.0907737
1619.5029,1.1061858
1621.4312,1.1363593
1623.3594,1.1290133
1625.2871,1.1000978
1627.2153,1.0984792
1629.1436,1.1028994
1631.0715,1.1143466
1632.9998,1.1476945
1634.9275,1.1418833
1636.8557,1.1060082
1638.7839,1.1043617
1640.7119,1.1276481
1642.6399,1.1568315
1644.5681,1.1598867
1646.4961,1.1299282
1648.4243,1.1276942
1650.3525,1.1164252
1652.2803,1.1037921
1654.2085,1.1051552
1656.1365,1.1015707
1658.0647,1.1041986
1659.9927,1.0918926
1661.9207,1.0725077
1663.8489,1.0880843
1665.7771,1.0789255
1667.7051,1.0732021
1669.633,1.0969945
1671.561,1.1082679
1673.4893,1.1186944
1675.4175,1.1250827
1677.3455,1.1018177
1679.2734,1.1228015
1681.2017,1.1212157
1683.1296,1.1038848
1685.0579,1.1588019
1686.9856,1.2554148
1688.9138,1.2988318
1690.842,1.2962725
1692.77,1.2716355
1694.698,1.2824587
1696.6262,1.2567476
1698.5542,1.174036
1700.4824,1.1446314
1702.4104,1.1509565
1704.3386,1.1261568
1706.2666,1.0962594
1708.1946,1.0747378
1710.1228,1.0956413
1712.0508,1.098971
1713.979,1.070555
1715.907,1.0863761
1717.835,1.1192726
1719.7632,1.0915023
1721.6912,1.0938373
1723.6191,1.1165384
1725.5474,1.1143767
1727.4756,1.097126
1729.4036,1.1077495
1731.3315,1.0629392
1733.2595,1.0207886
1735.1877,1.0228487
1737.1157,1.0184518
1739.044,1.0256348
1740.9719,1.0267097
1742.9001,1.0096536
1744.8281,1.0180202
1746.7561,1.022955
1748.6843,1.0177598
1750.6123,1.0236995
1752.5405,1.0035038
1754.4685,0.98225313
1756.3967,1.0019573
1758.3247,1.0112706
1760.2527,1.0178984
1762.1809,1.0340812
1764.1089,1.0417788
1766.0371,1.0515325
1767.9651,1.0470717
1769.8931,1.0594007
1771.8213,1.0774355
1773.7493,1.0518147
1775.6772,1.0519754
1777.6055,1.0364603
1779.5337,1.0192347
1781.4617,1.0149103
1783.3896,1.0237974
1785.3176,0.99207395
1787.2458,0.97696835
1789.1738,1.0027118
1791.102,1.0308331
1793.0303,1.0263795
1794.9583,1.0366243
1796.8862,1.0543144
1798.8142,1.030234
1800.7424,1.0066494
1802.6704,1.0094008
1804.5986,0.9999925
1806.5266,1.0040601
1808.4548,1.029821
1810.3828,1.0557044
1812.3108,1.1051464
1814.239,1.1198725
1816.167,1.099457
1818.0952,1.0839444
1820.0232,1.0843228
1821.9512,1.0790254
1823.8792,1.0541996
1825.8074,1.0499321
1827.7356,1.0449772
1829.6636,1.032373
1831.5918,1.0187335
1833.5198,1.040354
1835.4478,1.0431806
1837.3757,1.0555161
1839.304,1.0824177
1841.2319,1.1011263
1843.1602,1.0830054
1845.0881,1.068648
1847.0164,1.075436
1848.9443,1.0863215
1850.8723,1.0866259
1852.8005,1.0867362
1854.7285,1.0726197
1856.6567,1.0586271
1858.5847,1.0850598
1860.5127,1.0880517
1862.4409,1.0714777
1864.3689,1.0684931
1866.2971,1.0751309
1868.2251,1.0993657
1870.1533,1.0980022
1872.0813,1.0989035
1874.0093,1.1033897
1875.9375,1.0883951
1877.8655,1.0681423
1879.7937,1.057767
1881.7217,1.045784
1883.6499,1.0364963
1885.5779,1.0214379
1887.5059,1.0089887
1889.4338,1.0076631
1891.362,0.97657984
1893.2903,0.96013445
1895.2183,0.9805005
1897.1462,0.9990184
1899.0745,0.97393256
1901.0024,0.9730853
1902.9304,1.0078192
1904.8586,0.999173
1906.7866,0.9899907
1908.7148,0.98007894
1910.6428,0.9821574
1912.5708,1.0049685
1914.499,1.0206543
1916.427,1.0212183
1918.3552,1.0133382
1920.2832,0.9910554
1922.2114,0.9797609
1924.1394,0.9950978
1926.0674,1.0083989
1927.9956,1.0200058
1929.9236,1.031793
1931.8518,1.0340912
1933.7798,1.0116632
1935.7078,1.005487
1937.636,1.0402505
1939.564,1.0530443
1941.4922,1.0521643
1943.4202,1.0512571
1945.3484,1.0919949
1947.2764,1.1103017
1949.2045,1.0696056
1951.1324,1.050936
1953.0605,1.1027032
1954.9885,1.1614971
1956.9167,1.1754881
1958.8448,1.1723543
1960.7728,1.1368375
1962.701,1.1288965
1964.629,1.1534995
1966.5571,1.169117
1968.4851,1.161588
1970.4133,1.1746979
1972.3413,1.2034261
1974.2694,1.1950778
1976.1975,1.2008504
1978.1256,1.1946133
1980.0537,1.1486422
1981.9817,1.1174763
1983.9098,1.089638
1985.8379,1.0647728
1987.766,1.0586632
1989.6941,1.0141689
1991.6221,1.0191383
1993.5503,1.0195407
1995.4783,0.99619853
1997.4064,0.9912778
1999.3344,0.97068644
2001.2626,0.9314573
2003.1906,0.95446974
2005.1187,0.97298944
2007.0468,0.95668495
2008.9749,0.94461715
2010.903,0.9187616
2012.8309,0.9094178
2014.759,0.9117349
2016.6871,0.90904796
2018.6152,0.92803115
2020.5432,0.9047097
2022.4713,0.9345874
2024.3995,0.9369454
2026.3275,0.87847924
2028.2556,0.8616319
2030.1836,0.9001188
2032.1118,0.91093135
2034.0398,0.9489247
2035.9679,0.94428325
2037.8959,0.9221118
2039.8241,0.9161316
2041.7522,0.9429801
2043.6802,0.9711968
2045.6084,0.9471009
2047.5364,0.92995495
2049.4644,1.0059477
2051.3926,1.0145925
2053.3208,0.94777757
2055.2485,0.8374249
2057.1768,0.88333803
2059.105,0.99366957
2061.033,0.98741144
2062.961,0.92684615
2064.8892,0.8904817
2066.8171,0.81838214
2068.745,0.8031987
2070.6733,0.85618865
2072.6016,0.84457874
2074.5293,0.8668763
2076.4575,0.9027401
2078.3857,0.8694838
2080.3137,0.83619726
2082.2417,0.8125525
2084.17,0.74355304
2086.098,0.7627651
2088.026,0.74787
2089.954,0.7488527
2091.8823,0.8448444
2093.8103,0.86229163
2095.7383,0.78797084
2097.6665,0.7860845
2099.5945,0.8200726
2101.5225,0.8042228
2103.4507,0.8399505
2105.3787,0.87644035
2107.307,0.81524754
2109.2349,0.81649214
2111.163,0.88909566
2113.0908,0.9115994
2115.019,0.97999614
2116.9473,1.0281006
2118.8752,1.0136247
2120.8032,1.0293175
2122.7314,1.0027574
2124.6597,0.9703177
2126.5874,0.9858449
2128.5156,0.9913048
2130.4438,0.9679783
2132.3718,0.9095087
2134.2998,0.9193909
2136.228,0.9539629
2138.1562,0.9308402
2140.084,0.8907942
2142.0122,0.84768194
2143.9404,0.8475598
2145.8684,0.9131406
2147.7964,0.90906626
2149.7246,0.86214876
2151.6526,0.7640599
2153.5806,0.7287324
2155.5088,0.8514096
2157.4368,0.9096112
2159.365,0.89949524
2161.293,0.8294323
2163.2212,0.72711307
2165.149,0.7464561
2167.0771,0.7980314
2169.0054,0.73510337
2170.9333,0.67208683
2172.8616,0.66884995
2174.7896,0.6166382
2176.7178,0.58590126
2178.6455,0.58775073
2180.5737,0.5670302
2182.502,0.5650142
2184.43,0.5864133
2186.358,0.57868433
2188.2861,0.5194117
2190.2144,0.4658453
2192.142,0.45354056
2194.0703,0.47673556
2195.9985,0.48791966
2197.9265,0.5309486
2199.8545,0.5865401
2201.7827,0.6062883
2203.711,0.6498341
2205.6387,0.6641369
2207.567,0.6895974
2209.4949,0.7370147
2211.423,0.7558524
2213.351,0.6845105
2215.2793,0.69551754
2217.207,0.78181577
2219.1353,0.82609934
2221.0635,0.8473247
2222.9915,0.8723856
2224.9194,0.85490656
2226.8477,0.82075644
2228.776,0.82667047
2230.7036,0.83566844
2232.6318,0.833278
2234.56,0.7580158
2236.488,0.8017792
2238.416,0.8785925
2240.3442,0.87644386
2242.2725,0.87139714
2244.2002,0.8706345
2246.1284,0.86476636
2248.0564,0.83723706
2249.9846,0.81034416
2251.9126,0.8214814
2253.8408,0.8295279
2255.769,0.7544252
2257.6968,0.71324366
2259.625,0.72265345
2261.553,0.7243346
2263.4812,0.71890676
2265.4092,0.7256765
2267.3374,0.68718696
2269.2654,0.6526716
2271.1934,0.66939
2273.1216,0.67620665
2275.0496,0.65830314
2276.9775,0.6169197
2278.9058,0.5798283
2280.834,0.60910946
2282.7617,0.64229566
2284.69,0.64905655
2286.6182,0.6151649
2288.5461,0.59153134
2290.474,0.6186111
2292.4023,0.6728073
2294.3306,0.69819266
2296.2583,0.6790768
2298.1865,0.62836695
2300.1145,0.6007886
2302.0427,0.6141359
2303.9707,0.64031786
2305.899,0.6422393
2307.827,0.6484719
2309.755,0.6660494
2311.683,0.66382116
2313.611,0.6430107
2315.539,0.6065398
2317.4673,0.61534774
2319.3955,0.6251038
2321.3235,0.62085456
2323.2515,0.59302574
2325.1797,0.5337263
2327.1077,0.5195991
2329.0356,0.5318567
2330.9639,0.5673561
2332.892,0.5628033
2334.8198,0.5839629
2336.748,0.647904
2338.6763,0.6975729
2340.6042,0.75497544
2342.5322,0.78464264
2344.4604,0.83142096
2346.3887,0.88634294
2348.3164,0.9241837
2350.2446,0.98901093
2352.1729,1.0103798
2354.1008,0.9570889
2356.0288,0.88986605
2357.957,0.8676881
2359.885,0.84028226
2361.813,0.8249635
2363.7412,0.8478474
2365.6692,0.8612027
2367.5972,0.866435
2369.5254,0.89220154
2371.4536,0.88103163
2373.3816,0.8192458
2375.3096,0.7854667
2377.2378,0.78083056
2379.1658,0.7532404
2381.0938,0.7119148
2383.022,0.6909983
2384.9502,0.67607456
2386.8782,0.64631295
2388.8062,0.640911
2390.7344,0.6778304
2392.6624,0.69110024
2394.5903,0.6772326
2396.5186,0.65627897
2398.4465,0.64041823
2400.3745,0.6378422
2402.3027,0.6418579
2404.231,0.65951115
2406.1587,0.6827886
2408.087,0.67636245
2410.0151,0.6211126
2411.943,0.6031553
2413.871,0.6262375
2415.7993,0.64645046
2417.7275,0.65147364
2419.6553,0.63525784
2421.5835,0.61771035
2423.5117,0.5966373
2425.4397,0.5947783
2427.3677,0.63378125
2429.296,0.6923167
2431.2239,0.7174622
2433.1519,0.72841984
2435.08,0.7430949
2437.0083,0.7524741
2438.9363,0.77738196
2440.8643,0.79919994
2442.7925,0.8441542
2444.7205,0.86384284
2446.6484,0.8769153
2448.5767,0.8964449
2450.5046,0.9473831
2452.4329,1.02481
2454.3608,1.1150331
2456.289,1.1604863
2458.2168,1.1556436
2460.145,1.1390325
2462.0732,1.0734541
2464.0012,0.9858467
2465.9292,0.92363745
2467.8574,0.85783756
2469.7856,0.8113623
2471.7134,0.80578583
2473.6416,0.7741604
2475.5698,0.7550186
2477.4978,0.7622321
2479.4258,0.7490862
2481.354,0.77493227
2483.2822,0.79223365
2485.21,0.79024714
2487.1382,0.8163439
2489.0662,0.8551718
2490.9944,0.8824126
2492.9224,0.86274034
2494.8506,0.86751103
2496.7783,0.86765015
2498.7065,0.85731816
2500.6348,0.85271466
2502.5627,0.822609
2504.491,0.8525571
2506.419,0.8689144
2508.3472,0.8501987
2510.275,0.9051676
2512.2031,0.94598365
2514.1313,0.9608952
2516.0593,0.98310256
2517.9873,0.96570927
2519.9155,0.9276681
2521.8438,0.9649865
2523.7715,1.0310987
2525.6997,1.1102748
2527.628,1.2006807
2529.556,1.2274969
2531.484,1.1873791
2533.412,1.1471416
2535.3403,1.0861802
2537.268,1.0027614
2539.1963,0.96563715
2541.1243,0.95142144
2543.0525,0.9177015
2544.9805,0.90266323
2546.9087,0.8828626
2548.8364,0.89454204
2550.7646,0.9404395
2552.6929,0.9422779
2554.6208,0.9336961
2556.549,0.9814477
2558.477,0.9688548
2560.4053,0.93558276
2562.333,0.93267757
2564.2612,0.9263738
2566.1895,0.97157365
2568.1174,1.0005734
2570.0454,1.0417718
2571.9736,1.1142359
2573.9019,1.1876527
2575.8296,1.2856567
2577.7578,1.3461323
2579.686,1.3680657
2581.614,1.3937975
2583.542,1.4033338
2585.4702,1.389701
2587.3984,1.3859144
2589.3262,1.3701619
2591.2544,1.3936625
2593.1824,1.4344999
2595.1106,1.488632
2597.0386,1.5987234
2598.9668,1.7468446
2600.8948,1.8918155
2602.8228,1.9836767
2604.751,1.9835514
2606.679,1.9651004
2608.607,1.9270688
2610.5352,1.8571298
2612.4634,1.729932
2614.391,1.5879692
2616.3193,1.5020465
2618.2476,1.5009307
2620.1755,1.5384312
2622.1035,1.5747947
2624.0317,1.5533998
2625.96,1.6427395
2627.8877,1.7808923
2629.816,2.03243
2631.7441,3.0751965
2633.672,4.642134
2635.6,4.21499
2637.5283,2.4307826
2639.4565,1.576673
2641.3843,1.3951927
2643.3125,1.4389325
2645.2405,1.5076151
2647.1687,1.5532037
2649.0967,1.6369724
2651.025,1.8193636
2652.953,2.0941482
2654.8809,2.4582083
2656.809,2.9992063
2658.737,3.8228238
2660.665,4.942335
2662.5933,6.549835
2664.5215,8.013231
2666.4495,7.9294696
2668.3774,6.434963
2670.3057,5.040628
2672.2336,4.166001
2674.1616,3.553468
2676.0898,3.0727956
2678.018,2.699555
2679.9458,2.5072894
2681.874,2.517025
2683.8022,2.7137043
2685.7302,3.1157947
2687.6582,3.4793818
2689.5864,3.548969
2691.5144,3.4149778
2693.4424,3.4103818
2695.3706,3.8565395
2697.2988,4.729942
2699.2266,5.0467467
2701.1548,4.104831
2703.083,2.9474566
2705.011,2.3555744
2706.939,2.0247931
2708.8672,1.8121365
2710.7952,1.6751939
2712.7231,1.522674
2714.6514,1.363699
2716.5796,1.2717744
2718.5076,1.2314972
2720.4355,1.2171465
2722.3638,1.204455
2724.2917,1.1696784
2726.2197,1.1076831
2728.148,1.0690575
2730.0762,1.043838
2732.0042,1.0363519
2733.9321,1.059485
2735.8604,1.0630271
2737.7883,1.0372608
2739.7163,1.0174394
2741.6445,0.9444845
2743.5725,0.8953286
2745.5005,0.9466647
2747.4287,0.994865
2749.357,0.99987906
2751.2847,1.0185198
2753.213,1.0595292
2755.141,1.1000525
2757.069,1.11533
2758.997,1.1026536
2760.9253,1.1114258
2762.8533,1.1557801
2764.7812,1.2163687
2766.7095,1.3088142
2768.6377,1.3996989
2770.5657,1.4558264
2772.4937,1.4304152
2774.4219,1.4186035
2776.3499,1.4341857
2778.2778,1.4293158
2780.206,1.4198933
2782.134,1.4934814
2784.0623,1.5641532
2785.9902,1.6131201
2787.9185,1.6794779
2789.8462,1.8216805
2791.7744,1.9559528
2793.7026,2.084022
2795.6306,2.3187506
2797.5588,2.7533967
2799.4868,3.2176514
2801.415,3.267174
2803.3428,2.8675303
2805.271,2.528227
2807.1992,2.4359574
2809.1272,2.5044096
2811.0552,2.6386933
2812.9834,2.8117664
2814.9116,3.0020862
2816.8394,3.1785676
2818.7676,3.3864007
2820.6958,3.7740073
2822.6238,4.2877774
2824.5518,4.9037848
2826.48,5.5870614
2828.408,6.327387
2830.336,7.114438
2832.2642,8.047208
2834.1921,9.360509
2836.1204,11.126378
2838.0483,13.492286
2839.9766,16.860788
2841.9043,21.98142
2843.8325,29.89102
2845.7607,41.952785
2847.6887,60.02029
2849.6167,86.33532
2851.545,117.945244
2853.4731,137.45338
2855.4011,127.83786
2857.329,98.30537
2859.2573,69.664375
2861.1853,50.505287
2863.1133,39.205677
2865.0415,32.85312
2866.9695,29.818659
2868.8975,29.036259
2870.8257,29.272186
2872.754,29.036486
2874.682,27.80247
2876.6099,26.208652
2878.538,25.156569
2880.466,25.190226
2882.394,26.513918
2884.3223,29.169127
2886.2502,32.604412
2888.1785,35.02641
2890.1064,35.111702
2892.0347,34.210365
2893.9626,34.22403
2895.8906,35.22207
2897.8188,36.015305
2899.7468,35.801483
2901.6748,34.951504
2903.603,34.23556
2905.5312,34.129837
2907.4592,34.90864
2909.3872,36.71785
2911.3154,39.622765
2913.2434,43.83275
2915.1714,49.64458
2917.0996,57.752872
2919.0276,69.158714
2920.9556,84.09963
2922.8838,98.909065
2924.812,104.559906
2926.74,96.13971
2928.668,81.50762
2930.5962,71.24961
2932.5242,69.88975
2934.4521,78.90225
2936.3804,97.003006
2938.3086,113.688354
2940.2366,112.91529
2942.1646,93.583824
2944.0928,70.35328
2946.0208,52.902035
2947.9487,41.46918
2949.877,33.826214
2951.805,28.513988
2953.733,24.608189
2955.6611,21.549524
2957.5894,19.084002
2959.5173,17.076254
2961.4453,15.383888
2963.3735,13.843017
2965.3015,12.454586
2967.2295,11.264694
2969.1577,10.243634
2971.086,9.372056
2973.014,8.644657
2974.942,8.016894
2976.87,7.438791
2978.798,6.935276
2980.726,6.4974256
2982.6543,6.1514044
2984.5823,5.8117948
2986.5103,5.491494
2988.4385,5.1791563
2990.3665,4.8780456
2992.2947,4.663409
2994.2227,4.4786754
2996.151,4.292919
2998.0789,4.13073
3000.0068,3.9494987
3001.935,3.745205
3003.863,3.5746067
3005.791,3.4464376
3007.7192,3.3186367
3009.6472,3.1956723
3011.5754,3.0898883
3013.5034,2.9489944
3015.4316,2.7578967
3017.3596,2.619362
3019.2876,2.500076
3021.2158,2.3759747
3023.1438,2.2871296
3025.072,2.2350922
3027.0,2.1590464
3028.9282,2.053483
3030.8562,1.9823095
3032.7842,1.9526324
3034.7124,1.8959483
3036.6404,1.8245134
3038.5684,1.7290024
3040.4966,1.6571354
3042.4246,1.5874184
3044.3528,1.512092
3046.2808,1.4663953
3048.209,1.4464716
3050.137,1.3976718
3052.065,1.3510919
3053.9932,1.2993948
3055.9211,1.2960461
3057.849,1.3011526
3059.7773,1.286553
3061.7053,1.2798666
3063.6335,1.2760458
3065.5615,1.2313317
3067.4897,1.203334
3069.4177,1.1497567
3071.3457,1.1160418
3073.274,1.1408811
3075.202,1.1233044
3077.13,1.0940994
3079.058,1.108374
3080.986,1.1388733
3082.9143,1.1268471
3084.8423,1.1017456
3086.7705,1.0949168
3088.6985,1.0803365
3090.6265,1.1373698
3092.5547,1.159393
3094.4827,1.1519877
3096.411,1.1654612
3098.3389,1.1495152
3100.267,1.1254152
3102.195,1.0642202
3104.123,1.0507724
3106.0513,1.0729262
3107.9792,1.0457755
3109.9072,1.0436631
3111.8354,1.055628
3113.7634,1.0622807
3115.6917,1.0990602
3117.6196,1.1079961
3119.5479,1.1204283
3121.4758,1.1471429
3123.4038,1.1763258
3125.332,1.2203251
3127.26,1.2542931
3129.188,1.2753167
3131.1162,1.2881787
3133.0444,1.2993114
3134.9724,1.2644347
3136.9004,1.2290035
3138.8286,1.1970495
3140.7566,1.2026203
3142.6846,1.1981751
3144.6128,1.2097502
3146.5408,1.2658498
3148.4688,1.3013893
3150.397,1.2218568
3152.3252,1.1323481
3154.2532,1.1485194
3156.1812,1.1616467
3158.1094,1.153668
3160.0374,1.1785384
3161.9653,1.1659663
3163.8936,1.1120847
3165.8215,1.082752
3167.7498,1.0701824
3169.6777,1.0861201
3171.606,1.0951983
3173.534,1.0827934
3175.462,1.0427985
3177.3901,1.0290132
3179.318,1.0009184
3181.246,0.961908
3183.1743,0.9376209
3185.1025,0.911088
3187.0305,0.9184655
3188.9585,0.92942506
3190.8867,0.90743524
3192.8147,0.9074335
3194.7427,0.9059973
3196.671,0.8683689
3198.5989,0.84645534
3200.527,0.8479527
3202.455,0.87757325
3204.3833,0.87728983
3206.3113,0.87219924
3208.2393,0.86502755
3210.1675,0.8512889
3212.0955,0.8270791
3214.0234,0.83782554
3215.9517,0.83718127
3217.88,0.81043375
3219.8079,0.8273391
3221.7358,0.7985887
3223.664,0.7638399
3225.592,0.8030289
3227.52,0.83502483
3229.4482,0.8365156
3231.3762,0.82055146
3233.3044,0.802054
3235.2324,0.7885059
3237.1606,0.79696816
3239.0886,0.79781896
3241.0166,0.7796784
3242.9448,0.76534986
3244.8728,0.77273786
3246.8008,0.7883645
3248.729,0.7742265
3250.6572,0.76883805
3252.5852,0.7856401
3254.5132,0.7890043
3256.4414,0.74539834
3258.3694,0.72551495
3260.2974,0.77221936
3262.2256,0.8190174
3264.1536,0.8669968
3266.0818,0.869122
3268.0098,0.8569085
3269.938,0.85218865
3271.866,0.8426715
3273.794,0.82068235
3275.7222,0.8021839
3277.6501,0.8276303
3279.5781,0.86038333
3281.5063,0.85423744
3283.4343,0.8358768
3285.3625,0.8373663
3287.2905,0.8565946
3289.2188,0.86634266
3291.1467,0.84067684
3293.0747,0.8226339
3295.003,0.8160765
3296.931,0.8329334
3298.859,0.8461812
3300.787,0.90778935
3302.715,0.90646404
3304.6433,0.89000493
3306.5713,0.9053111
3308.4995,0.90790653
3310.4275,0.89188445
3312.3555,0.8747201
3314.2837,0.85815984
3316.2117,0.8706268
3318.14,0.870351
3320.0679,0.85047996
3321.996,0.86343247
3323.924,0.8483316
3325.852,0.7989382
3327.7803,0.77819407
3329.7083,0.7936084
3331.6362,0.81448865
3333.5645,0.8171598
3335.4924,0.79266137
3337.4207,0.8016759
3339.3486,0.81958264
3341.2769,0.80570716
3343.2048,0.81147134
3345.1328,0.8157923
3347.061,0.8014216
3348.989,0.7977678
3350.917,0.8126542
3352.8452,0.83175296
3354.7732,0.8009134
3356.7014,0.7698143
3358.6294,0.74292874
3360.5576,0.74286366
3362.4856,0.744763
3364.4136,0.7649863
3366.3418,0.7451635
3368.2698,0.7310272
3370.1978,0.73000044
3372.126,0.71068364
3374.054,0.7221024
3375.9822,0.72533816
3377.9102,0.73408675
3379.8384,0.74629676
3381.7664,0.7662103
3383.6943,0.73686534
3385.6226,0.72358084
3387.5505,0.6814689
3389.4785,0.62185025
3391.4067,0.6168196
3393.3347,0.64977455
3395.263,0.65205854
3397.191,0.6465638
3399.1191,0.69994944
3401.047,0.6868994
3402.975,0.63658255
3404.9033,0.6799188
3406.8313,0.69471717
3408.7595,0.6586412
3410.6875,0.66377944
3412.6157,0.6516306
3414.5437,0.61467004
3416.4717,0.62224764
3418.4,0.660611
3420.328,0.65582234
3422.2559,0.6745643
3424.184,0.68061715
3426.1123,0.6481126
3428.0403,0.61180323
3429.9683,0.60624504
3431.8965,0.61203104
3433.8245,0.59771866
3435.7524,0.5845086
3437.6807,0.5523467
3439.6086,0.5163775
3441.5366,0.4556213
3443.4648,0.40341538
3445.393,0.44129285
3447.321,0.45517373
3449.249,0.41839296
3451.1772,0.40792447
3453.1052,0.41871792
3455.0332,0.4260814
3456.9614,0.38730654
3458.8894,0.36275306
3460.8176,0.33757287
3462.7456,0.32525617
3464.6738,0.3147317
3466.6018,0.2933371
3468.5298,0.2805129
3470.458,0.25157362
3472.386,0.2593862
3474.314,0.25958407
3476.2422,0.22134583
3478.1704,0.20623782
3480.0984,0.19082066
3482.0264,0.15900818
3483.9546,0.15919313
3485.8826,0.16235653
3487.8105,0.18842484
3489.7388,0.18446061
3491.6667,0.18146133
3493.595,0.12476866
3495.523,0.08010585
3497.451,0.107354484
3499.3792,0.12412155
3501.3071,0.113800004
3503.2354,0.108070806
3505.1633,0.112828285
3507.0913,0.123480044
3509.0195,0.111198775
3510.9475,0.08670045
3512.8757,0.077403575
3514.8037,0.036607265
3516.732,0.0012807084
3518.66,0.03711492
3520.588,0.030013392
3522.516,0.02042647
3524.444,0.0077305767
3526.3723,0.005861393
3528.3003,0.024820156
3530.2283,0.01797121
3532.1565,0.015670009
3534.0845,0.03617979
3536.0127,0.07756859
3537.9407,0.086037375
3539.8687,0.05272534
3541.7969,0.03783233
3543.7249,0.029770782
3545.653,0.035485733
3547.581,0.02328014
3549.5093,0.007440062
3551.4373,0.044194855
3553.3652,0.08692003
3555.2935,0.0572735
3557.2214,0.029553689
3559.1494,0.037497748
3561.0776,0.045945853
3563.0056,0.036955554
3564.9338,0.017348764
3566.8618,0.03130841
3568.79,0.024807317
3570.718,0.05434692
3572.646,0.04957111
3574.5742,0.052136652
3576.5022,0.043128297
3578.4302,0.031084865
3580.3584,0.022993898
3582.2866,0.046910647
3584.2146,0.04991357
3586.1426,0.04458308
3588.0708,0.047364805
3589.9988,0.008703911
3591.9268,0.036800038
3593.855,0.017708926
3595.783,0.051402964
3597.7112,0.036999114
3599.6392,0.03478392
3601.5674,0.046624582
3603.4954,0.041505232
3605.4233,0.0069744014
3607.3516,0.016562294
3609.2795,0.013974017
3611.2075,0.026774323
3613.1357,0.037077565
3615.0637,0.03845054
3616.992,0.023981025
3618.92,0.031132452
3620.8481,0.01293966
3622.7761,0.0035343848
3624.704,0.020534854
3626.6323,0.06042556
3628.5603,0.08331173
3630.4883,0.044750813
3632.4165,0.0104958415
3634.3445,0.020435212
3636.2727,0.018982472
3638.2007,0.060773242
3640.129,0.062585175
3642.057,0.045520216
3643.9849,0.038790602
3645.913,0.027092319
3647.841,0.0032502073
3649.7693,0.01663379
3651.6973,0.02952711
3653.6252,0.00951722
3655.5535,0.01050329
3657.4814,0.050695118
3659.4097,0.066238746
3661.3376,0.03567704
3663.2656,0.011294117
3665.1938,0.017205246
3667.1218,0.029845493
3669.05,0.046057303
3670.978,0.04837412
3672.9062,0.0205263
3674.8342,0.027347477
3676.7622,0.052375738
3678.6904,0.050979767
3680.6184,0.034176636
3682.5466,0.013505415
3684.4746,0.022846958
3686.4026,0.011233119
3688.3308,0.028960349
3690.2588,0.017708888
3692.187,0.021910682
3694.115,0.0418366
3696.043,0.05027342
3697.9712,0.06638799
3699.8992,0.063326955
3701.8274,0.042638656
3703.7554,0.010774612
3705.6836,0.014625823
3707.6116,0.033493917
3709.5396,0.047380064
3711.4678,0.075947404
3713.3958,0.0967602
3715.3237,0.060003597
3717.252,0.020229938
3719.18,0.0321352
3721.1082,0.04111135
3723.0361,0.0419664
3724.9644,0.045389846
3726.8923,0.033978805
3728.8203,0.04866954
3730.7485,0.012498167
3732.6765,0.01658869
3734.6047,0.003196944
3736.5327,0.021265086
3738.4607,0.0028477658
3740.389,0.046298377
3742.317,0.03612339
3744.245,0.029582549
3746.173,0.043333836
3748.101,0.0142206345
3750.0293,0.027218495
3751.9573,0.0479461
3753.8855,0.018634994
3755.8135,0.016320758
3757.7417,0.02702361
3759.6697,0.029032527
3761.5977,0.045872785
3763.526,0.062422782
3765.4539,0.066557296
3767.3818,0.030299889
3769.31,0.0147509435
3771.238,0.032202438
3773.1663,0.03887449
3775.0942,0.020232491
3777.0225,0.020256996
3778.9504,0.015029931
3780.8784,0.020096665
3782.8066,0.021996975
3784.7346,0.018684866
3786.6628,0.0584915
3788.5908,0.028196907
3790.5188,0.046749692
3792.447,0.07796888
3794.375,0.037259683
3796.3032,0.035365254
3798.2312,0.067901865
3800.1592,0.069319665
3802.0874,0.05989812
3804.0154,0.017339341
3805.9436,0.029340293
3807.8716,0.044547293
3809.7998,0.016162274
3811.7278,0.03405939
3813.6558,0.02993597
3815.584,0.03724191
3817.512,0.048148047
3819.44,0.05186948
3821.3682,0.05276631
3823.2961,0.030272342
3825.2244,0.027899161
3827.1523,0.02694966
3829.0806,0.027311984
3831.0085,0.017217673
3832.9365,0.016787717
3834.8647,0.047995266
3836.7927,0.0560663
3838.721,0.068800524
3840.649,0.0663033
3842.577,0.03520714
3844.5051,0.020672664
3846.433,0.041958388
3848.3613,0.034451686
3850.2893,0.02624423
3852.2173,0.055048194
3854.1455,0.021322446
3856.0735,0.05148522
3858.0017,0.032502457
3859.9297,0.05358626
3861.8577,0.03542276
3863.786,0.05466668
3865.7139,0.05517123
3867.642,0.034502845
3869.57,0.03432415
3871.498,0.020417506
3873.4263,0.041692115
3875.3542,0.05015245
3877.2825,0.020736264
3879.2104,0.037540622
3881.1387,0.049494464
3883.0667,0.05494205
3884.9946,0.044397492
3886.9229,0.028713042
3888.8508,0.0647429
3890.779,0.0327276
3892.707,0.012940694
3894.635,0.016334126
3896.5632,0.05204993
3898.4912,0.045019526
3900.4194,0.024260761
3902.3474,0.052737325
3904.2754,0.07607255
3906.2036,0.068762645
3908.1316,0.042317357
3910.0598,0.04818843
3911.9878,0.0679059
3913.916,0.02131632
3915.844,0.018692873
3917.772,0.035093825
3919.7002,0.021265928
3921.6282,0.017556615
3923.5562,0.002719379
3925.4844,0.032134615
3927.4124,0.057317287
3929.3406,0.028543899
3931.2686,0.04163288
3933.1968,0.051175114
3935.1248,0.045412526
3937.0527,0.044228442
3938.981,0.036803614
3940.909,0.05233663
3942.8372,0.050020043
3944.7651,0.039783977
3946.693,0.034010228
3948.6213,0.061313026
3950.5493,0.08464527
3952.4775,0.05784688
3954.4055,0.02749579
3956.3335,0.04463699
3958.2617,0.05543308
3960.1897,0.0109036425
3962.118,0.024655191
3964.046,0.045985103
3965.9739,0.070892
3967.902,0.0568012
3969.83,0.052933995
3971.7583,0.046936166
3973.6863,0.029770551
3975.6145,0.031480145
3977.5425,0.044978753
3979.4705,0.04252663
3981.3987,0.046788413
3983.3267,0.05176397
3985.255,0.03569848
3987.1829,0.020058466
3989.1108,0.004990299
3991.039,0.006721139
3992.967,0.026388938
3994.8953,0.018600274
3996.8232,0.017102178



