waveno,amplitude
0.0,0.271934
1.0,0.269669
2.0,0.268088
3.0,0.266842
4.0,0.265975
5.0,0.265469
6.0,0.265237
7.0,0.265055
8.0,0.264969
9.0,0.265537
10.0,0.266721
11.0,0.268347
12.0,0.270795
13.0,0.273689
14.0,0.277477
15.0,0.281285
16.0,0.285135
17.0,0.289033
18.0,0.293211
19.0,0.297833
20.0,0.303546
21.0,0.309283
22.0,0.314859
23.0,0.321023
24.0,0.326585
25.0,0.331772
26.0,0.336991
27.0,0.34228
28.0,0.347611
29.0,0.352805
30.0,0.357485
31.0,0.361571
32.0,0.36492
33.0,0.367444
34.0,0.368921
35.0,0.368992
36.0,0.367381
37.0,0.364096
38.0,0.359586
39.0,0.354288
40.0,0.348142
41.0,0.341227
42.0,0.334007
43.0,0.326817
44.0,0.319719
45.0,0.312765
46.0,0.306137
47.0,0.300008
48.0,0.294377
49.0,0.289241
50.0,0.284746
51.0,0.281021
52.0,0.27794
53.0,0.27542
54.0,0.273741
55.0,0.273006
56.0,0.272993
57.0,0.273435
58.0,0.274192
59.0,0.275245
60.0,0.276485
61.0,0.277694
62.0,0.278775
63.0,0.279999
64.0,0.281687
65.0,0.283648
66.0,0.285273
67.0,0.286398
68.0,0.287417
69.0,0.288495
70.0,0.289482
71.0,0.290095
72.0,0.290156
73.0,0.29
74.0,0.289952
75.0,0.289662
76.0,0.288972
77.0,0.287988
78.0,0.286217
79.0,0.283854
80.0,0.282289
81.0,0.281707
82.0,0.280777
83.0,0.278817
84.0,0.276216
85.0,0.27338
86.0,0.26994
87.0,0.265208
88.0,0.259231
89.0,0.252522
90.0,0.245334
91.0,0.238039
92.0,0.231199
93.0,0.225239
94.0,0.220416
95.0,0.216805
96.0,0.214436
97.0,0.213229
98.0,0.212929
99.0,0.213342
100.0,0.214222
101.0,0.215315
102.0,0.216623
103.0,0.218112
104.0,0.219781
105.0,0.221621
106.0,0.223459
107.0,0.225263
108.0,0.227072
109.0,0.228903
110.0,0.230784
111.0,0.232691
112.0,0.234543
113.0,0.236252
114.0,0.237845
115.0,0.239466
116.0,0.241145
117.0,0.242833
118.0,0.244577
119.0,0.246341
120.0,0.248
121.0,0.249513
122.0,0.250883
123.0,0.25209
124.0,0.253122
125.0,0.254015
126.0,0.25479
127.0,0.255287
128.0,0.255427
129.0,0.255337
130.0,0.255004
131.0,0.254329
132.0,0.253367
133.0,0.252177
134.0,0.250766
135.0,0.24921
136.0,0.247525
137.0,0.245646
138.0,0.243412
139.0,0.240738
140.0,0.237763
141.0,0.234528
142.0,0.231005
143.0,0.227284
144.0,0.22345
145.0,0.219416
146.0,0.215041
147.0,0.210439
148.0,0.205858
149.0,0.201447
150.0,0.197247
151.0,0.193249
152.0,0.189513
153.0,0.186159
154.0,0.183268
155.0,0.180897
156.0,0.17908
157.0,0.177774
158.0,0.176966
159.0,0.176631
160.0,0.176681
161.0,0.177215
162.0,0.178203
163.0,0.179466
164.0,0.181058
165.0,0.1829
166.0,0.18485
167.0,0.186958
168.0,0.189227
169.0,0.191547
170.0,0.193872
171.0,0.196236
172.0,0.198623
173.0,0.201082
174.0,0.203638
175.0,0.206265
176.0,0.209008
177.0,0.211822
178.0,0.214717
179.0,0.217734
180.0,0.220712
181.0,0.223523
182.0,0.226047
183.0,0.228047
184.0,0.229294
185.0,0.229661
186.0,0.229
187.0,0.227165
188.0,0.224252
189.0,0.220232
190.0,0.215384
191.0,0.209641
192.0,0.202683
193.0,0.195178
194.0,0.18673
195.0,0.177566
196.0,0.168373
197.0,0.15928
198.0,0.151125
199.0,0.1438
200.0,0.137483
201.0,0.132522
202.0,0.128506
203.0,0.12526
204.0,0.122706
205.0,0.120629
206.0,0.118995
207.0,0.1178
208.0,0.116951
209.0,0.116358
210.0,0.11598
211.0,0.115807
212.0,0.11581
213.0,0.115932
214.0,0.116204
215.0,0.116638
216.0,0.117218
217.0,0.11786
218.0,0.118582
219.0,0.119359
220.0,0.120097
221.0,0.120797
222.0,0.121477
223.0,0.122139
224.0,0.122802
225.0,0.123367
226.0,0.123773
227.0,0.124114
228.0,0.124426
229.0,0.124729
230.0,0.124995
231.0,0.125302
232.0,0.12568
233.0,0.126036
234.0,0.126476
235.0,0.127022
236.0,0.127583
237.0,0.128107
238.0,0.128579
239.0,0.129036
240.0,0.129452
241.0,0.129819
242.0,0.130188
243.0,0.130554
244.0,0.130785
245.0,0.130929
246.0,0.131161
247.0,0.131481
248.0,0.131784
249.0,0.131904
250.0,0.131904
251.0,0.131881
252.0,0.131696
253.0,0.131393
254.0,0.13112
255.0,0.130933
256.0,0.130834
257.0,0.130752
258.0,0.13071
259.0,0.130839
260.0,0.131158
261.0,0.131627
262.0,0.132195
263.0,0.132672
264.0,0.132932
265.0,0.132968
266.0,0.132797
267.0,0.132415
268.0,0.131735
269.0,0.130858
270.0,0.130055
271.0,0.129433
272.0,0.12897
273.0,0.128604
274.0,0.128303
275.0,0.128073
276.0,0.127776
277.0,0.127401
278.0,0.127059
279.0,0.126656
280.0,0.126096
281.0,0.125446
282.0,0.124658
283.0,0.123589
284.0,0.122456
285.0,0.121574
286.0,0.120967
287.0,0.120418
288.0,0.119704
289.0,0.118767
290.0,0.117737
291.0,0.116863
292.0,0.116153
293.0,0.115515
294.0,0.114944
295.0,0.114454
296.0,0.114129
297.0,0.113955
298.0,0.113867
299.0,0.113902
300.0,0.114091
301.0,0.114349
302.0,0.114628
303.0,0.114982
304.0,0.115393
305.0,0.115863
306.0,0.116427
307.0,0.117005
308.0,0.117554
309.0,0.118126
310.0,0.118696
311.0,0.119289
312.0,0.119987
313.0,0.12077
314.0,0.121556
315.0,0.1223
316.0,0.123088
317.0,0.123889
318.0,0.124652
319.0,0.125497
320.0,0.12639
321.0,0.127212
322.0,0.127974
323.0,0.128759
324.0,0.129595
325.0,0.130372
326.0,0.131059
327.0,0.131659
328.0,0.132167
329.0,0.132631
330.0,0.133051
331.0,0.133429
332.0,0.133744
333.0,0.133969
334.0,0.134126
335.0,0.134233
336.0,0.134315
337.0,0.134334
338.0,0.134274
339.0,0.134215
340.0,0.134183
341.0,0.13416
342.0,0.134122
343.0,0.134084
344.0,0.134119
345.0,0.134224
346.0,0.134285
347.0,0.134306
348.0,0.134385
349.0,0.134454
350.0,0.134475
351.0,0.134533
352.0,0.134606
353.0,0.134615
354.0,0.134616
355.0,0.134693
356.0,0.134794
357.0,0.134934
358.0,0.135106
359.0,0.135286
360.0,0.135514
361.0,0.135726
362.0,0.135958
363.0,0.136227
364.0,0.136533
365.0,0.136908
366.0,0.137257
367.0,0.137618
368.0,0.138036
369.0,0.138523
370.0,0.139015
371.0,0.139411
372.0,0.139837
373.0,0.140234
374.0,0.140608
375.0,0.141026
376.0,0.141282
377.0,0.14153
378.0,0.141911
379.0,0.142203
380.0,0.142374
381.0,0.14248
382.0,0.142534
383.0,0.142672
384.0,0.142862
385.0,0.142916
386.0,0.142991
387.0,0.143134
388.0,0.143127
389.0,0.143054
390.0,0.142975
391.0,0.142864
392.0,0.142778
393.0,0.142657
394.0,0.142396
395.0,0.142039
396.0,0.141798
397.0,0.14155
398.0,0.141117
399.0,0.140657
400.0,0.140234
401.0,0.139831
402.0,0.139349
403.0,0.138708
404.0,0.138032
405.0,0.137346
406.0,0.136664
407.0,0.136027
408.0,0.135312
409.0,0.134519
410.0,0.133657
411.0,0.132587
412.0,0.131309
413.0,0.129653
414.0,0.127792
415.0,0.126423
416.0,0.125397
417.0,0.124158
418.0,0.122674
419.0,0.120955
420.0,0.118975
421.0,0.116753
422.0,0.114393
423.0,0.112013
424.0,0.109502
425.0,0.106868
426.0,0.104283
427.0,0.101641
428.0,0.098898
429.0,0.09621
430.0,0.093584
431.0,0.090961
432.0,0.088388
433.0,0.085923
434.0,0.083548
435.0,0.081362
436.0,0.079352
437.0,0.077365
438.0,0.075536
439.0,0.073827
440.0,0.072246
441.0,0.070988
442.0,0.069889
443.0,0.068842
444.0,0.067933
445.0,0.067072
446.0,0.066245
447.0,0.065462
448.0,0.064694
449.0,0.064079
450.0,0.06358
451.0,0.063064
452.0,0.06259
453.0,0.062251
454.0,0.062028
455.0,0.061881
456.0,0.061744
457.0,0.061559
458.0,0.061282
459.0,0.060943
460.0,0.060464
461.0,0.059914
462.0,0.059525
463.0,0.059016
464.0,0.058265
465.0,0.057485
466.0,0.056757
467.0,0.05618
468.0,0.055589
469.0,0.054838
470.0,0.05406
471.0,0.053333
472.0,0.052639
473.0,0.051935
474.0,0.051159
475.0,0.05038
476.0,0.049692
477.0,0.048949
478.0,0.048139
479.0,0.047453
480.0,0.046898
481.0,0.046359
482.0,0.045801
483.0,0.045263
484.0,0.04478
485.0,0.044368
486.0,0.044016
487.0,0.04366
488.0,0.04334
489.0,0.043168
490.0,0.042972
491.0,0.042654
492.0,0.042453
493.0,0.04228
494.0,0.042064
495.0,0.041949
496.0,0.04183
497.0,0.041706
498.0,0.041629
499.0,0.041601
500.0,0.041636
501.0,0.041595
502.0,0.041496
503.0,0.041409
504.0,0.041429
505.0,0.041662
506.0,0.041772
507.0,0.04171
508.0,0.041834
509.0,0.042043
510.0,0.042052
511.0,0.042037
512.0,0.042228
513.0,0.042404
514.0,0.042404
515.0,0.042394
516.0,0.042545
517.0,0.042762
518.0,0.042939
519.0,0.043094
520.0,0.043236
521.0,0.043442
522.0,0.04363
523.0,0.043809
524.0,0.044024
525.0,0.044206
526.0,0.044342
527.0,0.044408
528.0,0.044596
529.0,0.044854
530.0,0.044901
531.0,0.044995
532.0,0.045221
533.0,0.045291
534.0,0.04537
535.0,0.04552
536.0,0.045634
537.0,0.045765
538.0,0.045896
539.0,0.046051
540.0,0.046124
541.0,0.046083
542.0,0.046135
543.0,0.046256
544.0,0.046349
545.0,0.046469
546.0,0.04659
547.0,0.046726
548.0,0.046909
549.0,0.047033
550.0,0.047195
551.0,0.047439
552.0,0.047584
553.0,0.047781
554.0,0.048044
555.0,0.048114
556.0,0.048104
557.0,0.048285
558.0,0.048613
559.0,0.048818
560.0,0.048947
561.0,0.049204
562.0,0.04949
563.0,0.049808
564.0,0.050139
565.0,0.050401
566.0,0.050699
567.0,0.05094
568.0,0.051104
569.0,0.051347
570.0,0.051596
571.0,0.051902
572.0,0.052281
573.0,0.05252
574.0,0.052693
575.0,0.052883
576.0,0.053146
577.0,0.053538
578.0,0.053812
579.0,0.053919
580.0,0.054066
581.0,0.054308
582.0,0.054566
583.0,0.054687
584.0,0.054708
585.0,0.054753
586.0,0.054822
587.0,0.054928
588.0,0.055016
589.0,0.055131
590.0,0.055272
591.0,0.055261
592.0,0.055162
593.0,0.055166
594.0,0.055336
595.0,0.055483
596.0,0.055402
597.0,0.05532
598.0,0.055271
599.0,0.055156
600.0,0.055143
601.0,0.055123
602.0,0.055053
603.0,0.054872
604.0,0.054656
605.0,0.054612
606.0,0.05455
607.0,0.054434
608.0,0.054251
609.0,0.054072
610.0,0.053968
611.0,0.053707
612.0,0.053446
613.0,0.053322
614.0,0.05306
615.0,0.052676
616.0,0.052419
617.0,0.052329
618.0,0.052224
619.0,0.051978
620.0,0.051713
621.0,0.051451
622.0,0.051148
623.0,0.050933
624.0,0.0508
625.0,0.05062
626.0,0.050412
627.0,0.050187
628.0,0.049918
629.0,0.049633
630.0,0.049351
631.0,0.049207
632.0,0.049044
633.0,0.048547
634.0,0.048125
635.0,0.047941
636.0,0.047694
637.0,0.047544
638.0,0.047432
639.0,0.047211
640.0,0.04684
641.0,0.046449
642.0,0.046271
643.0,0.046082
644.0,0.045756
645.0,0.04556
646.0,0.045629
647.0,0.045505
648.0,0.045244
649.0,0.045205
650.0,0.045279
651.0,0.04531
652.0,0.044952
653.0,0.044669
654.0,0.044855
655.0,0.044819
656.0,0.044498
657.0,0.04425
658.0,0.044063
659.0,0.044028
660.0,0.044014
661.0,0.043886
662.0,0.043808
663.0,0.043865
664.0,0.043816
665.0,0.043613
666.0,0.043514
667.0,0.043437
668.0,0.043491
669.0,0.043632
670.0,0.043501
671.0,0.043374
672.0,0.043478
673.0,0.043521
674.0,0.043513
675.0,0.043445
676.0,0.04344
677.0,0.0436
678.0,0.043621
679.0,0.0437
680.0,0.043907
681.0,0.043963
682.0,0.04385
683.0,0.043798
684.0,0.043905
685.0,0.044086
686.0,0.044467
687.0,0.044703
688.0,0.044566
689.0,0.044531
690.0,0.044511
691.0,0.044619
692.0,0.045039
693.0,0.04515
694.0,0.045052
695.0,0.045042
696.0,0.045134
697.0,0.04528
698.0,0.045256
699.0,0.045171
700.0,0.045173
701.0,0.045346
702.0,0.045507
703.0,0.04561
704.0,0.045827
705.0,0.04608
706.0,0.046353
707.0,0.04657
708.0,0.046478
709.0,0.046378
710.0,0.046729
711.0,0.047122
712.0,0.047167
713.0,0.047092
714.0,0.046977
715.0,0.047057
716.0,0.047189
717.0,0.047171
718.0,0.047463
719.0,0.047609
720.0,0.047587
721.0,0.047692
722.0,0.047602
723.0,0.047601
724.0,0.0479
725.0,0.048284
726.0,0.048412
727.0,0.048457
728.0,0.048696
729.0,0.048551
730.0,0.048369
731.0,0.048893
732.0,0.04914
733.0,0.048865
734.0,0.048872
735.0,0.049121
736.0,0.049306
737.0,0.049418
738.0,0.04968
739.0,0.049954
740.0,0.049857
741.0,0.049773
742.0,0.050166
743.0,0.050457
744.0,0.050387
745.0,0.050369
746.0,0.050505
747.0,0.050612
748.0,0.050602
749.0,0.050905
750.0,0.051171
751.0,0.050979
752.0,0.051022
753.0,0.051157
754.0,0.051111
755.0,0.051249
756.0,0.051526
757.0,0.05198
758.0,0.052218
759.0,0.051988
760.0,0.051762
761.0,0.051702
762.0,0.05191
763.0,0.052231
764.0,0.052593
765.0,0.05295
766.0,0.052951
767.0,0.052656
768.0,0.052605
769.0,0.052986
770.0,0.053216
771.0,0.053282
772.0,0.053671
773.0,0.054087
774.0,0.05419
775.0,0.054414
776.0,0.054714
777.0,0.05441
778.0,0.054033
779.0,0.054338
780.0,0.054689
781.0,0.055017
782.0,0.055341
783.0,0.055068
784.0,0.054832
785.0,0.054816
786.0,0.054816
787.0,0.054947
788.0,0.055154
789.0,0.055491
790.0,0.055723
791.0,0.05586
792.0,0.055906
793.0,0.056061
794.0,0.056485
795.0,0.056653
796.0,0.056188
797.0,0.055853
798.0,0.056289
799.0,0.056901
800.0,0.057327
801.0,0.05725
802.0,0.05697
803.0,0.057173
804.0,0.057418
805.0,0.05726
806.0,0.05717
807.0,0.057339
808.0,0.057269
809.0,0.057364
810.0,0.057921
