waveno,amplitude
1.0,0.843397
2.0,0.8271298
3.0,0.8157088
4.0,0.8057346
5.0,0.7974493
6.0,0.7905985
7.0,0.7754234
8.0,0.7720346
9.0,0.7691969
10.0,0.7669244
11.0,0.7648681
12.0,0.7632692
13.0,0.7616389
14.0,0.7603574
15.0,0.7594182
16.0,0.7588907
17.0,0.7585764
18.0,0.7582307
19.0,0.7580231
20.0,0.758015
21.0,0.7583467
22.0,0.7590662
23.0,0.7596792
24.0,0.7602279
25.0,0.7607889
26.0,0.7610979
27.0,0.7613289
28.0,0.7614258
29.0,0.761238
30.0,0.760643
31.0,0.7595015
32.0,0.7580224
33.0,0.7561136
34.0,0.7535821
35.0,0.7504353
36.0,0.7470179
37.0,0.7436565
38.0,0.7401748
39.0,0.7366849
40.0,0.7332536
41.0,0.7296007
42.0,0.7258461
43.0,0.7221481
44.0,0.7181991
45.0,0.7137076
46.0,0.7088345
47.0,0.7038992
48.0,0.6990418
49.0,0.6945078
50.0,0.6904114
51.0,0.6867076
52.0,0.6834818
53.0,0.6807838
54.0,0.6785048
55.0,0.6765149
56.0,0.674729
57.0,0.6727661
58.0,0.6702509
59.0,0.6674607
60.0,0.6649447
61.0,0.6629934
62.0,0.6616689
63.0,0.6608015
64.0,0.6598417
65.0,0.6580728
66.0,0.6554103
67.0,0.6523791
68.0,0.6492984
69.0,0.6462154
70.0,0.6432043
71.0,0.6405063
72.0,0.6384487
73.0,0.6367648
74.0,0.6347404
75.0,0.6324184
76.0,0.630228
77.0,0.628238
78.0,0.6264583
79.0,0.62471
80.0,0.6228195
81.0,0.6209323
82.0,0.6191215
83.0,0.6174896
84.0,0.6162128
85.0,0.6153857
86.0,0.6150219
87.0,0.6148691
88.0,0.614711
89.0,0.6145052
90.0,0.6141902
91.0,0.6137541
92.0,0.6132053
93.0,0.6127406
94.0,0.612716
95.0,0.6134251
96.0,0.6150913
97.0,0.6178395
98.0,0.6223001
99.0,0.6283274
100.0,0.6315691
101.0,0.629068
102.0,0.6244116
103.0,0.620436
104.0,0.6166387
105.0,0.6124799
106.0,0.6081787
107.0,0.604187
108.0,0.6005774
109.0,0.5972562
110.0,0.5942605
111.0,0.5914932
112.0,0.5887453
113.0,0.5860076
114.0,0.5834211
115.0,0.5810553
116.0,0.5789127
117.0,0.5771093
118.0,0.5757955
119.0,0.5749264
120.0,0.574343
121.0,0.5740582
122.0,0.5741
123.0,0.5743603
124.0,0.5747883
125.0,0.575314
126.0,0.5758601
127.0,0.576322
128.0,0.576582
129.0,0.576727
130.0,0.5768601
131.0,0.5770602
132.0,0.57728
133.0,0.5774141
134.0,0.5775654
135.0,0.5777988
136.0,0.5781034
137.0,0.5784578
138.0,0.5788652
139.0,0.5793496
140.0,0.5798573
141.0,0.5803769
142.0,0.5809341
143.0,0.5815502
144.0,0.5821791
145.0,0.5827391
146.0,0.5833508
147.0,0.5840399
148.0,0.5846609
149.0,0.5852454
150.0,0.5859724
151.0,0.5869793
152.0,0.5881573
153.0,0.5893823
154.0,0.5907214
155.0,0.5922291
156.0,0.5939112
157.0,0.5957554
158.0,0.5977346
159.0,0.5998189
160.0,0.6020037
161.0,0.6042895
162.0,0.6066588
163.0,0.6091389
164.0,0.6117053
165.0,0.6142718
166.0,0.616798
167.0,0.6192796
168.0,0.6217268
169.0,0.6241629
170.0,0.6265837
171.0,0.6289466
172.0,0.6312539
173.0,0.6335192
174.0,0.6357495
175.0,0.6380532
176.0,0.640458
177.0,0.6428331
178.0,0.6452255
179.0,0.6477022
180.0,0.6501352
181.0,0.6525937
182.0,0.65518
183.0,0.6577826
184.0,0.6603895
185.0,0.663013
186.0,0.6655234
187.0,0.6677997
188.0,0.6698031
189.0,0.6711088
190.0,0.6711594
191.0,0.6692846
192.0,0.6649095
193.0,0.6573298
194.0,0.646501
195.0,0.6332138
196.0,0.6185513
197.0,0.6046243
198.0,0.5917945
199.0,0.580467
200.0,0.5713351
201.0,0.563792
202.0,0.5575047
203.0,0.5522361
204.0,0.547604
205.0,0.5437111
206.0,0.5405962
207.0,0.5381667
208.0,0.5363067
209.0,0.5348544
210.0,0.5337664
211.0,0.5329422
212.0,0.5322734
213.0,0.5317911
214.0,0.5313984
215.0,0.5310797
216.0,0.5308502
217.0,0.5306607
218.0,0.5305552
219.0,0.5305027
220.0,0.5304447
221.0,0.5303985
222.0,0.5304379
223.0,0.530544
224.0,0.5306038
225.0,0.5306293
226.0,0.530687
227.0,0.5307884
228.0,0.5309003
229.0,0.5309801
230.0,0.531031
231.0,0.5310643
232.0,0.5311172
233.0,0.5311916
234.0,0.5311909
235.0,0.531157
236.0,0.5311479
237.0,0.5310834
238.0,0.5310441
239.0,0.5310524
240.0,0.5309903
241.0,0.5309105
242.0,0.5308413
243.0,0.5306754
244.0,0.5305124
245.0,0.5304652
246.0,0.5304049
247.0,0.5303605
248.0,0.5303266
249.0,0.5301514
250.0,0.529928
251.0,0.5297973
252.0,0.5296994
253.0,0.5295594
254.0,0.5294067
255.0,0.5292549
256.0,0.5291335
257.0,0.529057
258.0,0.5289536
259.0,0.528872
260.0,0.5288952
261.0,0.5289582
262.0,0.5289609
263.0,0.5288379
264.0,0.5286466
265.0,0.5284725
266.0,0.5283135
267.0,0.5281424
268.0,0.527972
269.0,0.5277957
270.0,0.5275703
271.0,0.5273106
272.0,0.5271243
273.0,0.5270708
274.0,0.5270474
275.0,0.527002
276.0,0.5269004
277.0,0.5267636
278.0,0.5267388
279.0,0.5267611
280.0,0.5266904
281.0,0.5266383
282.0,0.5266098
283.0,0.5264834
284.0,0.5263874
285.0,0.5263904
286.0,0.5263839
287.0,0.5263543
288.0,0.5263179
289.0,0.5262745
290.0,0.5262293
291.0,0.5262066
292.0,0.526197
293.0,0.5261748
294.0,0.5261876
295.0,0.5261984
296.0,0.52615
297.0,0.5261359
298.0,0.5262179
299.0,0.5263093
300.0,0.5263174
301.0,0.5263348
302.0,0.5264524
303.0,0.5265821
304.0,0.5266761
305.0,0.5267472
306.0,0.5268078
307.0,0.5268757
308.0,0.5269658
309.0,0.5271028
310.0,0.5272805
311.0,0.5273978
312.0,0.5274334
313.0,0.527512
314.0,0.5276574
315.0,0.5278154
316.0,0.5279789
317.0,0.5281269
318.0,0.5282242
319.0,0.5283279
320.0,0.5285007
321.0,0.5287067
322.0,0.5288438
323.0,0.5289607
324.0,0.5291784
325.0,0.5293833
326.0,0.5295318
327.0,0.5296911
328.0,0.5298508
329.0,0.5300487
330.0,0.5302419
331.0,0.5304115
332.0,0.5306146
333.0,0.5307792
334.0,0.5309153
335.0,0.531065
336.0,0.531221
337.0,0.5314246
338.0,0.5316222
339.0,0.5317681
340.0,0.531903
341.0,0.5321
342.0,0.532368
343.0,0.5325785
344.0,0.5326724
345.0,0.5328004
346.0,0.5330494
347.0,0.5333149
348.0,0.5335326
349.0,0.5337452
350.0,0.5339543
351.0,0.5341455
352.0,0.5343468
353.0,0.5345291
354.0,0.5347406
355.0,0.5350269
356.0,0.5352942
357.0,0.5355106
358.0,0.5357871
359.0,0.5360641
360.0,0.5362841
361.0,0.5365779
362.0,0.5368943
363.0,0.5371884
364.0,0.5375068
365.0,0.5378269
366.0,0.5381251
367.0,0.5384387
368.0,0.5387372
369.0,0.5390023
370.0,0.5393444
371.0,0.5397749
372.0,0.5402131
373.0,0.5406024
374.0,0.5409768
375.0,0.5414119
376.0,0.5418262
377.0,0.5421844
378.0,0.5425662
379.0,0.5429496
380.0,0.5433674
381.0,0.5438408
382.0,0.544308
383.0,0.5447766
384.0,0.5452329
385.0,0.5456209
386.0,0.5460261
387.0,0.5465103
388.0,0.5469522
389.0,0.5473844
390.0,0.5479321
391.0,0.5485138
392.0,0.5490426
393.0,0.5495519
394.0,0.5500233
395.0,0.5504269
396.0,0.5507742
397.0,0.551055
398.0,0.5512819
399.0,0.5514623
400.0,0.5516092
401.0,0.5518079
402.0,0.5520108
403.0,0.5521976
404.0,0.5524712
405.0,0.5527899
406.0,0.5530591
407.0,0.5533577
408.0,0.553814
409.0,0.5543277
410.0,0.5548912
411.0,0.5554957
412.0,0.5559209
413.0,0.5562811
414.0,0.5568969
415.0,0.5577729
416.0,0.558751
417.0,0.5597276
418.0,0.560563
419.0,0.5613362
420.0,0.5622566
421.0,0.5632207
422.0,0.5641339
423.0,0.5651139
424.0,0.56625
425.0,0.5674912
426.0,0.5688452
427.0,0.5708394
428.0,0.5737318
429.0,0.5756273
430.0,0.5748792
431.0,0.5728372
432.0,0.5708451
433.0,0.5689377
434.0,0.5671253
435.0,0.565384
436.0,0.5633721
437.0,0.5611927
438.0,0.5591577
439.0,0.5571589
440.0,0.5552106
441.0,0.5532818
442.0,0.5513483
443.0,0.5494996
444.0,0.5476593
445.0,0.5459429
446.0,0.5443691
447.0,0.5428347
448.0,0.5414992
449.0,0.5403631
450.0,0.5393013
451.0,0.5383664
452.0,0.5376462
453.0,0.5369708
454.0,0.5362881
455.0,0.5357251
456.0,0.5352287
457.0,0.5348227
458.0,0.5345321
459.0,0.5343319
460.0,0.5342313
461.0,0.5341091
462.0,0.5339718
463.0,0.5339062
464.0,0.5339022
465.0,0.5339777
466.0,0.534028
467.0,0.5340231
468.0,0.5340656
469.0,0.5341861
470.0,0.5343347
471.0,0.5343196
472.0,0.5341296
473.0,0.5339621
474.0,0.5338618
475.0,0.5338976
476.0,0.5340968
477.0,0.5342037
478.0,0.5342484
479.0,0.5342986
480.0,0.5343103
481.0,0.5343983
482.0,0.5344103
483.0,0.5343739
484.0,0.5344694
485.0,0.5346383
486.0,0.5347658
487.0,0.5348526
488.0,0.5349166
489.0,0.5348988
490.0,0.5349912
491.0,0.535199
492.0,0.5353205
493.0,0.5353657
494.0,0.535407
495.0,0.5355344
496.0,0.5357292
497.0,0.5358773
498.0,0.5359396
499.0,0.5360799
500.0,0.5363079
501.0,0.5364761
502.0,0.5365627
503.0,0.5365766
504.0,0.5366975
505.0,0.5369287
506.0,0.5371106
507.0,0.5371818
508.0,0.5372661
509.0,0.5374877
510.0,0.537649
511.0,0.5377505
512.0,0.5379514
513.0,0.5381497
514.0,0.5382089
515.0,0.5382993
516.0,0.5386183
517.0,0.5388344
518.0,0.5387976
519.0,0.5388643
520.0,0.5390465
521.0,0.5391949
522.0,0.5393956
523.0,0.5396554
524.0,0.5398773
525.0,0.5400793
526.0,0.5402006
527.0,0.540195
528.0,0.5403109
529.0,0.540556
530.0,0.5408099
531.0,0.5412023
532.0,0.5415195
533.0,0.541616
534.0,0.541797
535.0,0.5420526
536.0,0.5422016
537.0,0.5422956
538.0,0.5425547
539.0,0.5428999
540.0,0.5430472
541.0,0.5431285
542.0,0.5433018
543.0,0.5435688
544.0,0.5439811
545.0,0.5443004
546.0,0.5444247
547.0,0.5445935
548.0,0.5448093
549.0,0.5450322
550.0,0.5452443
551.0,0.545435
552.0,0.5455924
553.0,0.5456586
554.0,0.5457513
555.0,0.5459915
556.0,0.5463271
557.0,0.546659
558.0,0.5468348
559.0,0.5470077
560.0,0.5472772
561.0,0.5474212
562.0,0.5475712
563.0,0.5478492
564.0,0.5480826
565.0,0.5481841
566.0,0.5484078
567.0,0.5488113
568.0,0.5491083
569.0,0.5492807
570.0,0.549479
571.0,0.549849
572.0,0.5501738
573.0,0.5502307
574.0,0.5502316
575.0,0.5504016
576.0,0.5507368
577.0,0.5510678
578.0,0.5512684
579.0,0.5513989
580.0,0.5516726
581.0,0.5520743
582.0,0.5524517
583.0,0.5526929
584.0,0.5528269
585.0,0.553058
586.0,0.5533189
587.0,0.5535278
588.0,0.5538197
589.0,0.5540248
590.0,0.5541006
591.0,0.5542879
592.0,0.5544783
593.0,0.5546492
594.0,0.5549418
595.0,0.5552444
596.0,0.5555848
597.0,0.5560475
598.0,0.5562654
599.0,0.5561717
600.0,0.5562438
601.0,0.5564721
602.0,0.5565932
603.0,0.5567243
604.0,0.5569997
605.0,0.5573856
606.0,0.5577826
607.0,0.5580551
608.0,0.5584234
609.0,0.5587819
610.0,0.5586762
611.0,0.5587146
612.0,0.5592333
613.0,0.5596659
614.0,0.5598337
615.0,0.5600049
616.0,0.5602029
617.0,0.5602154
618.0,0.5604069
619.0,0.5607696
620.0,0.561087
621.0,0.5615037
622.0,0.5617499
623.0,0.5618504
624.0,0.5619178
625.0,0.5620627
626.0,0.5624602
627.0,0.5627475
628.0,0.5628803
629.0,0.5630892
630.0,0.5633842
631.0,0.5636922
632.0,0.5639034
633.0,0.5640325
634.0,0.5642005
635.0,0.5644346
636.0,0.5647165
637.0,0.5649412
638.0,0.5650385
639.0,0.5652356
640.0,0.5655673
641.0,0.5659477
642.0,0.5661674
643.0,0.566166
644.0,0.566245
645.0,0.5664251
646.0,0.5666244
647.0,0.5668598
648.0,0.5670803
649.0,0.5672017
650.0,0.5673971
651.0,0.5677641
652.0,0.5679629
653.0,0.567907
654.0,0.56808
655.0,0.5685783
656.0,0.5688717
657.0,0.5688433
658.0,0.5689719
659.0,0.5694767
660.0,0.5699142
661.0,0.569997
662.0,0.570016
663.0,0.5702145
664.0,0.5704477
665.0,0.5705138
666.0,0.5708142
667.0,0.5713594
668.0,0.5715376
669.0,0.571594
670.0,0.5720162
671.0,0.5723025
672.0,0.5722509
673.0,0.5723763
674.0,0.5726055
675.0,0.5728031
676.0,0.57293
677.0,0.5730755
678.0,0.5734674
679.0,0.5739442
680.0,0.5741898
681.0,0.5743213
682.0,0.5744449
683.0,0.5746807
684.0,0.5749593
685.0,0.5748929
686.0,0.5750976
687.0,0.5755832
688.0,0.5759593
689.0,0.5762905
690.0,0.5762933
691.0,0.5762798
692.0,0.5766054
693.0,0.5768724
694.0,0.5768949
695.0,0.5771409
696.0,0.5775185
697.0,0.5777935
698.0,0.5779911
699.0,0.5781292
700.0,0.5782275
701.0,0.5781358
702.0,0.578356
703.0,0.5790334
704.0,0.5794069
705.0,0.5793263
706.0,0.5792633
707.0,0.5796139
708.0,0.5800896
709.0,0.580116
710.0,0.5802467
711.0,0.5806604
712.0,0.5808856
713.0,0.5812593
714.0,0.5815614
715.0,0.5814091
716.0,0.5814398
717.0,0.5817541
718.0,0.5819287
719.0,0.5821187
720.0,0.5823231
721.0,0.5825805
722.0,0.5831744
723.0,0.5835652
724.0,0.583543
725.0,0.5836365
726.0,0.5836483
727.0,0.5836741
728.0,0.5841885
729.0,0.5849655
730.0,0.5854468
731.0,0.5854045
732.0,0.5854857
733.0,0.5858794
734.0,0.5858374
735.0,0.585725
736.0,0.585981
737.0,0.5861177
738.0,0.5861247
739.0,0.5861468
740.0,0.5860934
741.0,0.5860028
742.0,0.5865252
743.0,0.5873417
744.0,0.5874182
745.0,0.587532
746.0,0.5880395
747.0,0.5881497
748.0,0.5882569
749.0,0.5887948
750.0,0.5890913
751.0,0.5889858
752.0,0.5892607
753.0,0.5897119
754.0,0.5896621
755.0,0.589455
756.0,0.5896389
757.0,0.5902209
758.0,0.590803
759.0,0.5909855
760.0,0.590974
761.0,0.5915171
762.0,0.5919548
763.0,0.5916362
764.0,0.5910892
765.0,0.5909931
766.0,0.5916284
767.0,0.592061
768.0,0.5921485
769.0,0.5925909
770.0,0.5932447
771.0,0.5933383
772.0,0.5930541
773.0,0.5930459
774.0,0.5935984
775.0,0.5941915
776.0,0.594265
777.0,0.5945871
778.0,0.5948009
779.0,0.5945546
780.0,0.5946831
781.0,0.5949754
782.0,0.5953126
783.0,0.5959004
784.0,0.5962273
785.0,0.5965648
786.0,0.5966356
787.0,0.5961014
788.0,0.5961688
789.0,0.5967076
790.0,0.5971191
791.0,0.5975232
792.0,0.597363
793.0,0.5967378
794.0,0.5966237
795.0,0.5970889
796.0,0.597739
797.0,0.598489
798.0,0.5988612
799.0,0.5989736
800.0,0.5992212
801.0,0.5987423
802.0,0.5981694
803.0,0.5987641
804.0,0.599589
805.0,0.5999294
806.0,0.6001975
807.0,0.6007506
808.0,0.6012552
809.0,0.6013721
810.0,0.0
811.0,0.0
