--> pclanilIR-out0.animl
#1:
# Absorbance=false
# Absorbance\tDataType=B
# Continuous=true
# Continuous\tDataType=B
# DataClass=XYDATA
# DataClass\tDataType=S
# DataType=IR SPECTRUM
# DataType\tDataType=S
# Date=
# Date\tDataType=S
# Format=NIR
# Format\tDataType=S
# HZtoPPM=false
# HZtoPPM\tDataType=B
# Increasing=true
# Increasing\tDataType=B
# Insert\ Timestamp=2000-01-01 00\:00\:00
# Insert\ Timestamp\tDataType=S
# Instrument=unknown
# Instrument\tDataType=S
# Jcampdx=5.01
# Jcampdx\tDataType=S
# ObservedFreq=1.7976931348623157E308
# ObservedFreq\tDataType=N
# Origin=public domain
# Origin\tDataType=S
# Owner=Chem. Dep`t, UWI, JAMAICA
# Owner\tDataType=S
# Parent\ ID=-1
# Pathlength=-1
# Pathlength\tDataType=S
# Sample\ ID=public domain - para-chloroaniline
# Sample\ ID\tDataType=S
# Source=pclanilIR.animl
# Source\tDataType=S
# Time=
# Time\tDataType=S
# Title=para-chloroaniline
# Title\tDataType=S
# Transmittance=true
# Transmittance\tDataType=B
# XFactor=1.0
# XFactor\tDataType=N
# XUnits=1/cm
# XUnits\tDataType=S
# YFactor=1.0
# YFactor\tDataType=N
# YUnits=Transmittance
# YUnits\tDataType=S
waveno,amplitude
400.03683,0.6372728
402.0368,0.65033066
404.03677,0.65794075
406.03677,0.66209555
408.03674,0.6583223
410.03674,0.6512634
412.0367,0.6545067
414.03668,0.66779774
416.03668,0.6684549
418.03665,0.6542311
420.03662,0.6653388
422.03662,0.6760861
424.0366,0.6769553
426.03656,0.68121606
428.03656,0.6815764
430.03653,0.6794142
432.03653,0.6780152
434.0365,0.6785663
436.03647,0.6774004
438.03647,0.67589533
440.03644,0.6762769
442.0364,0.6751958
444.0364,0.6783331
446.03638,0.6801561
448.03638,0.6767645
450.03635,0.67184657
452.03632,0.6690484
454.03632,0.67087144
456.0363,0.6726733
458.03625,0.67460227
460.03625,0.67521703
462.03622,0.67477185
464.0362,0.67297006
466.0362,0.6703839
468.03616,0.6672254
470.03616,0.66648346
472.03613,0.667077
474.0361,0.66661066
476.0361,0.66497844
478.03607,0.6641305
480.03604,0.6640033
482.03604,0.6632614
484.036,0.66194713
486.03598,0.6579831
488.03598,0.65478224
490.03595,0.6541463
492.03595,0.65145415
494.03592,0.6454552
496.0359,0.6393502
498.0359,0.63328755
500.03586,0.62247664
502.03583,0.6015755
504.03583,0.56829476
506.0358,0.5304141
508.0358,0.5181405
510.03577,0.5618506
512.03577,0.62404525
514.0357,0.65957296
516.0357,0.67328805
518.0357,0.6797746
520.03564,0.6816612
522.03564,0.68132204
524.03564,0.6798382
526.0356,0.67892665
528.0356,0.677782
530.0356,0.67718846
532.0355,0.6776972
534.0355,0.67684925
536.0355,0.67566216
538.0355,0.67511106
540.03546,0.6747507
542.03546,0.6755562
544.03546,0.6762769
546.0354,0.6766797
548.0354,0.6749414
550.0354,0.67388153
552.03534,0.6747507
554.03534,0.67642534
556.03534,0.6765525
558.0353,0.67508984
560.0353,0.67390275
562.0353,0.67258847
564.0352,0.671783
566.0352,0.6715074
568.0352,0.67074424
570.03516,0.67169815
572.03516,0.67313963
574.03516,0.67275804
576.0351,0.6714438
578.0351,0.6725673
580.0351,0.6736272
582.0351,0.6734364
584.03503,0.67307603
586.03503,0.6724401
588.03503,0.671465
590.035,0.6711894
592.035,0.67093503
594.035,0.66995996
596.0349,0.6694724
598.0349,0.669854
600.0349,0.67082906
602.03485,0.6695572
604.03485,0.6683277
606.03485,0.66906965
608.0348,0.6690484
610.0348,0.6679673
612.0348,0.667713
614.0347,0.6666531
616.0347,0.6643637
618.0347,0.6619895
620.0347,0.65974253
622.03467,0.65669006
624.03467,0.65334076
626.03467,0.6499067
628.0346,0.64664227
630.0346,0.64267826
632.0346,0.6346442
634.03455,0.62135315
636.03455,0.6032289
638.03455,0.58400244
640.0345,0.5705205
642.0345,0.574103
644.0345,0.6085072
646.0344,0.657114
648.0344,0.68518007
650.0344,0.69332004
652.03436,0.69459194
654.03436,0.6939772
656.03436,0.6927477
658.03436,0.6916666
660.0343,0.6893984
662.0343,0.68723625
664.0343,0.6860704
666.03424,0.6865791
668.03424,0.68507403
670.03424,0.68308145
672.0342,0.683251
674.0342,0.68276346
676.0342,0.68206394
678.0341,0.6824667
680.0341,0.6827423
682.0341,0.6828695
684.03406,0.68219113
686.03406,0.6809193
688.03406,0.68005013
690.034,0.6797746
692.034,0.67911744
694.034,0.6766797
696.03394,0.6731184
698.03394,0.66913325
700.03394,0.67012954
702.03394,0.6753866
704.0339,0.6787571
706.0339,0.67930824
708.0339,0.679393
710.0338,0.67968976
712.0338,0.67901146
714.0338,0.67814237
716.03375,0.6783331
718.03375,0.67888427
720.03375,0.67930824
722.0337,0.6790962
724.0337,0.67882067
726.0337,0.67831194
728.0336,0.6784815
730.0336,0.6797322
732.0336,0.6804105
734.03357,0.6802197
736.03357,0.6792234
738.03357,0.6789055
740.03357,0.67924464
742.0335,0.6795414
744.0335,0.6787783
746.0335,0.6779516
748.03345,0.6788419
750.03345,0.67992294
752.03345,0.6803469
754.0334,0.6809193
756.0334,0.6809829
758.0334,0.6812372
760.0333,0.68096167
762.0333,0.6803045
764.0333,0.68013495
766.03326,0.67975336
768.03326,0.67918104
770.03326,0.67899024
772.0332,0.6781635
774.0332,0.6775064
776.0332,0.6769553
778.0332,0.67687047
780.03314,0.6775912
782.03314,0.67799395
784.03314,0.67693406
786.0331,0.6762769
788.0331,0.6755138
790.0331,0.67411476
792.033,0.6727369
794.033,0.67108345
796.033,0.6694512
798.03296,0.66767055
800.03296,0.66584754
802.03296,0.6633886
804.0329,0.65982735
806.0329,0.6542523
808.0329,0.6467906
810.03284,0.6372092
812.03284,0.62343055
814.03284,0.60206306
816.0328,0.5688247
818.0328,0.5256234
820.0328,0.49140996
822.0328,0.48744595
824.0327,0.5082199
826.0327,0.5214686
828.0327,0.5091738
830.03265,0.48494458
832.03265,0.47900918
834.03265,0.50949174
836.0326,0.5626561
838.0326,0.6100547
840.0326,0.6401557
842.03253,0.6575168
844.03253,0.6677766
846.03253,0.67377555
848.0325,0.6774428
850.0325,0.6798594
852.0325,0.6812372
854.0324,0.6825727
856.0324,0.68371737
858.0324,0.68416256
860.0324,0.6845229
862.03235,0.6853072
864.03235,0.6856888
866.03235,0.6860068
868.0323,0.6866003
870.0323,0.6873846
872.0323,0.6876178
874.0322,0.68806297
876.0322,0.68829614
878.0322,0.687957
880.03217,0.68804175
882.03217,0.68874127
884.03217,0.6885717
886.0321,0.687745
888.0321,0.6868335
890.0321,0.6864943
892.03204,0.6868759
894.03204,0.6871939
896.03204,0.687533
898.03204,0.6875966
900.032,0.6874482
902.032,0.6875542
904.032,0.68721503
906.0319,0.6869395
908.0319,0.6877026
910.0319,0.68819016
912.03186,0.68838096
914.03186,0.68838096
916.03186,0.6884445
918.0318,0.6877238
920.0318,0.68698186
922.0318,0.6866639
924.03174,0.6857524
926.03174,0.68282706
928.03174,0.68127966
930.0317,0.68333584
932.0317,0.68554044
934.0317,0.68509525
936.0316,0.6845441
938.0316,0.6855192
940.0316,0.68615514
942.0316,0.68598557
944.03156,0.6858372
946.03156,0.685604
948.03156,0.6854344
950.0315,0.6852012
952.0315,0.68496805
954.0315,0.6849469
956.03143,0.68503165
958.03143,0.6848621
960.03143,0.6843745
962.0314,0.6843109
964.0314,0.68422616
966.0314,0.68378097
968.0313,0.6834206
970.0313,0.68339944
972.0313,0.6831874
974.03125,0.68289065
976.03125,0.68219113
978.03125,0.68151283
980.03125,0.6809193
982.0312,0.6806861
984.0312,0.6806013
986.0312,0.6804105
988.0311,0.68000776
990.0311,0.67975336
992.0311,0.67920226
994.03107,0.6782907
996.03107,0.6768281
998.03107,0.6745387
1000.031,0.67076546
1002.031,0.6628162
1004.031,0.6507334
1006.03094,0.6470238
1008.03094,0.65760154
1010.03094,0.66879404
1012.0309,0.6733092
1014.0309,0.67460227
1016.0309,0.67441154
1018.0308,0.67390275
1020.0308,0.673818
1022.0308,0.67364836
1024.0308,0.6735
1026.0308,0.67313963
1028.0308,0.673394
1030.0308,0.6735848
1032.0308,0.6735424
1034.0306,0.67320323
1036.0306,0.67307603
1038.0306,0.67252487
1040.0306,0.67233413
1042.0306,0.6719949
1044.0306,0.6714438
1046.0306,0.67032033
1048.0305,0.66868806
1050.0305,0.6664623
1052.0305,0.66536
1054.0305,0.66673785
1056.0305,0.6694512
1058.0305,0.6713166
1060.0304,0.6718042
1062.0304,0.6713378
1064.0304,0.6704687
1066.0304,0.66968435
1068.0304,0.6681581
1070.0304,0.66667426
1072.0303,0.6662715
1074.0303,0.66599596
1076.0303,0.6642789
1078.0303,0.66188353
1080.0303,0.6584919
1082.0303,0.65346795
1084.0303,0.6419575
1086.0302,0.6115173
1088.0302,0.56144786
1090.0302,0.5502766
1092.0302,0.5773039
1094.0302,0.60706574
1096.0302,0.6521961
1098.03,0.6748143
1100.03,0.6766797
1102.03,0.6755138
1104.03,0.6740087
1106.03,0.6722917
1108.03,0.67008716
1110.0299,0.6667167
1112.0299,0.6619259
1114.0299,0.6564569
1116.0299,0.65247166
1118.0299,0.65202653
1120.0299,0.6546975
1122.0299,0.65730476
1124.0298,0.6585979
1126.0298,0.6599969
1128.0298,0.66290104
1130.0298,0.6675646
1132.0298,0.6717194
1134.0298,0.67415714
1136.0297,0.67498386
1138.0297,0.6750686
1140.0297,0.67485666
1142.0297,0.67409354
1144.0297,0.6733728
1146.0297,0.67207974
1148.0295,0.6709139
1150.0295,0.67063826
1152.0295,0.67070186
1154.0295,0.6703839
1156.0295,0.67006594
1158.0295,0.6697904
1160.0295,0.6693664
1162.0294,0.6686457
1164.0294,0.6681581
1166.0294,0.66724664
1168.0294,0.66574156
1170.0294,0.66357934
1172.0294,0.6603361
1174.0293,0.6557149
1176.0293,0.6487408
1178.0293,0.62951434
1180.0293,0.59570366
1182.0293,0.57766426
1184.0293,0.5842992
1186.0292,0.62404525
1188.0292,0.6666319
1190.0292,0.6785451
1192.0292,0.6787571
1194.0292,0.67767596
1196.0292,0.6768281
1198.029,0.6758106
1200.029,0.67489904
1202.029,0.6736696
1204.029,0.6728641
1206.029,0.6722493
1208.029,0.671677
1210.029,0.67106223
1212.0289,0.6708503
1214.0289,0.67068064
1216.0289,0.67025673
1218.0289,0.6697268
1220.0289,0.6693452
1222.0289,0.66875166
1224.0288,0.66811574
1226.0288,0.6674162
1228.0288,0.6663775
1230.0288,0.665466
1232.0288,0.66487247
1234.0288,0.66396093
1236.0287,0.66309184
1238.0287,0.6624983
1240.0287,0.6619895
1242.0287,0.66177756
1244.0287,0.66107804
1246.0287,0.6600605
1248.0287,0.65883106
1250.0286,0.6573896
1252.0286,0.6555666
1254.0286,0.6534468
1256.0286,0.6511786
1258.0286,0.64844406
1260.0286,0.6452008
1262.0284,0.6416819
1264.0284,0.6378663
1266.0284,0.6340295
1268.0284,0.62919635
1270.0284,0.6224554
1272.0284,0.614909
1274.0283,0.6071081
1276.0283,0.5985442
1278.0283,0.58883554
1280.0283,0.57721907
1282.0283,0.563928
1284.0283,0.5467577
1286.0283,0.52180773
1288.0282,0.4957767
1290.0282,0.48833624
1292.0282,0.5099793
1294.0282,0.5585013
1296.0282,0.6134463
1298.0282,0.64971596
1300.0281,0.6666319
1302.0281,0.67398757
1304.0281,0.677146
1306.0281,0.6782695
1308.0281,0.6782695
1310.0281,0.6774004
1312.028,0.6766585
1314.028,0.67604375
1316.028,0.67585295
1318.028,0.6755562
1320.028,0.6742419
1322.028,0.6725673
1324.028,0.6713802
1326.0278,0.6703839
1328.0278,0.66993874
1330.0278,0.67015076
1332.0278,0.67032033
1334.0278,0.6703839
1336.0278,0.6707231
1338.0277,0.67106223
1340.0277,0.67080784
1342.0277,0.67082906
1344.0277,0.6711046
1346.0277,0.6709775
1348.0277,0.67057467
1350.0276,0.66995996
1352.0276,0.6689636
1354.0276,0.6682641
1356.0276,0.6678401
1358.0276,0.6675858
1360.0276,0.6675222
1362.0276,0.66724664
1364.0275,0.66648346
1366.0275,0.6665895
1368.0275,0.6669074
1370.0275,0.6667591
1372.0275,0.6663775
1374.0275,0.66593236
1376.0273,0.66536
1378.0273,0.66485125
1380.0273,0.6641517
1382.0273,0.6626255
1384.0273,0.66078126
1386.0273,0.6603997
1388.0272,0.6612476
1390.0272,0.66169274
1392.0272,0.66169274
1394.0272,0.6613536
1396.0272,0.6601877
1398.0272,0.659467
1400.0272,0.6591066
1402.0271,0.6592762
1404.0271,0.659467
1406.0271,0.65893704
1408.0271,0.65842825
1410.0271,0.6581739
1412.0271,0.65755916
1414.027,0.65673244
1416.027,0.65592694
1418.027,0.6553334
1420.027,0.6536375
1422.027,0.65253526
1424.027,0.6518145
1426.0269,0.6507334
1428.0269,0.64977956
1430.0269,0.6481473
1432.0269,0.64562476
1434.0269,0.643505
1436.0269,0.64053726
1438.0267,0.634517
1440.0267,0.6315705
1442.0267,0.63171893
1444.0267,0.63417786
1446.0267,0.6368276
1448.0267,0.63858706
1450.0267,0.6394138
1452.0266,0.63932896
1454.0266,0.63865066
1456.0266,0.6377815
1458.0266,0.63343596
1460.0266,0.6301927
1462.0266,0.6283696
1464.0265,0.62639827
1466.0265,0.6216711
1468.0265,0.6167956
1470.0265,0.61336154
1472.0265,0.6113265
1474.0265,0.60914314
1476.0264,0.60486114
1478.0264,0.59708154
1480.0264,0.588348
1482.0264,0.5732763
1484.0264,0.55324423
1486.0264,0.53158
1488.0264,0.5085379
1490.0262,0.46431902
1492.0262,0.4025483
1494.0262,0.3822407
1496.0262,0.3977364
1498.0262,0.415903
1500.0262,0.4018488
1502.0261,0.4371857
1504.0261,0.49876562
1506.0261,0.55320185
1508.0261,0.6336479
1510.0261,0.6543795
1512.0261,0.6620531
1514.026,0.6683277
1516.026,0.67169815
1518.026,0.6719949
1520.026,0.67265207
1522.026,0.67074424
1524.026,0.669112
1526.026,0.6674374
1528.0259,0.6671406
1530.0259,0.66807336
1532.0259,0.67000234
1534.0259,0.67099863
1536.0259,0.67074424
1538.0259,0.67080784
1540.0258,0.66976917
1542.0258,0.6661867
1544.0258,0.66389734
1546.0258,0.66184115
1548.0258,0.6610568
1550.0258,0.659255
1552.0256,0.657114
1554.0256,0.6553758
1556.0256,0.6540191
1558.0256,0.65565133
1560.0256,0.6553546
1562.0256,0.65560895
1564.0256,0.65586334
1566.0255,0.6550578
1568.0255,0.6541675
1570.0255,0.65145415
1572.0255,0.64770216
1574.0255,0.64492524
1576.0255,0.64070684
1578.0254,0.63782394
1580.0254,0.63718796
1582.0254,0.63536495
1584.0254,0.633012
1586.0254,0.6311042
1588.0254,0.6288148
1590.0253,0.6261439
1592.0253,0.62315494
1594.0253,0.61921215
1596.0253,0.61291635
1598.0253,0.604734
1600.0253,0.5961064
1602.0253,0.58658856
1604.0251,0.5737214
1606.0251,0.557505
1608.0251,0.53624356
1610.0251,0.50749916
1612.0251,0.4757447
1614.0251,0.44757268
1616.025,0.42631117
1618.025,0.4230043
1620.025,0.44570726
1622.025,0.4796451
1624.025,0.53497165
1626.025,0.5743574
1628.0249,0.5973571
1630.0249,0.61613846
1632.0249,0.6258895
1634.0249,0.63405067
1636.0249,0.6431446
1638.0249,0.64977956
1640.0249,0.6520053
1642.0248,0.6548246
1644.0248,0.6574108
1646.0248,0.6607388
1648.0248,0.665254
1650.0248,0.6674162
1652.0248,0.6695784
1654.0247,0.67258847
1656.0247,0.67265207
1658.0247,0.67364836
1660.0247,0.6746871
1662.0247,0.67521703
1664.0247,0.67479306
1666.0245,0.6749414
1668.0245,0.675747
1670.0245,0.67572576
1672.0245,0.67523825
1674.0245,0.67617095
1676.0245,0.6766585
1678.0244,0.6765101
1680.0244,0.6761921
1682.0244,0.67636174
1684.0244,0.6764889
1686.0244,0.67411476
1688.0244,0.6743903
1690.0244,0.67477185
1692.0243,0.6754502
1694.0243,0.67636174
1696.0243,0.6765313
1698.0243,0.67589533
1700.0243,0.6761497
1702.0243,0.67566216
1704.0242,0.6761497
1706.0242,0.6762133
1708.0242,0.6760225
1710.0242,0.6763193
1712.0242,0.67610735
1714.0242,0.675641
1716.024,0.6757046
1718.024,0.67483544
1720.024,0.6740087
1722.024,0.6747083
1724.024,0.6747507
1726.024,0.6743903
1728.024,0.67434794
1730.0239,0.67352116
1732.0239,0.6729913
1734.0239,0.6725673
1736.0239,0.6714226
1738.0239,0.67227054
1740.0239,0.6723129
1742.0238,0.6719949
1744.0238,0.6715498
1746.0238,0.67188895
1748.0238,0.6720585
1750.0238,0.67127424
1752.0238,0.6702779
1754.0237,0.6704687
1756.0237,0.67063826
1758.0237,0.6695572
1760.0237,0.6693876
1762.0237,0.6695784
1764.0237,0.6694512
1766.0237,0.67012954
1768.0236,0.67099863
1770.0236,0.671359
1772.0236,0.6712954
1774.0236,0.6715074
1776.0236,0.6721009
1778.0236,0.67258847
1780.0234,0.6728641
1782.0234,0.67258847
1784.0234,0.67258847
1786.0234,0.67214334
1788.0234,0.671783
1790.0234,0.67188895
1792.0233,0.6717406
1794.0233,0.6713166
1796.0233,0.67114705
1798.0233,0.67108345
1800.0233,0.671359
1802.0233,0.671253
1804.0233,0.67108345
1806.0232,0.67101985
1808.0232,0.6707231
1810.0232,0.67025673
1812.0232,0.6697268
1814.0232,0.6693876
1816.0232,0.6693028
1818.0231,0.6690908
1820.0231,0.6687305
1822.0231,0.6686669
1824.0231,0.66868806
1826.0231,0.6686669
1828.0231,0.66906965
1830.023,0.6690484
1832.023,0.66887885
1834.023,0.6690908
1836.023,0.6693876
1838.023,0.6692604
1840.023,0.66887885
1842.023,0.66879404
1844.0228,0.66824293
1846.0228,0.66769177
1848.0228,0.667713
1850.0228,0.667607
1852.0228,0.66779774
1854.0228,0.66788256
1856.0227,0.6679037
1858.0227,0.66762817
1860.0227,0.66688627
1862.0227,0.6662715
1864.0227,0.66610193
1866.0227,0.66591114
1868.0226,0.665466
1870.0226,0.66402453
1872.0226,0.6624771
1874.0226,0.6609932
1876.0226,0.65883106
1878.0226,0.65567255
1880.0226,0.65221727
1882.0225,0.65147537
1884.0225,0.6546975
1886.0225,0.65967894
1888.0225,0.66357934
1890.0225,0.6658263
1892.0225,0.6671406
1894.0223,0.66779774
1896.0223,0.6679673
1898.0223,0.66800976
1900.0223,0.6678401
1902.0223,0.66767055
1904.0223,0.6677766
1906.0222,0.66767055
1908.0222,0.6674374
1910.0222,0.66705585
1912.0222,0.66680145
1914.0222,0.66667426
1916.0222,0.66661066
1918.0221,0.6662927
1920.0221,0.6656356
1922.0221,0.6655932
1924.0221,0.66589
1926.0221,0.6663775
1928.0221,0.6666319
1930.0221,0.6663563
1932.022,0.6661867
1934.022,0.6662291
1936.022,0.66616553
1938.022,0.66599596
1940.022,0.66616553
1942.022,0.6663351
1944.0219,0.6661231
1946.0219,0.66593236
1948.0219,0.6655932
1950.0219,0.6654448
1952.0219,0.66555077
1954.0219,0.66555077
1956.0217,0.66523284
1958.0217,0.66536
1960.0217,0.6655084
1962.0217,0.66555077
1964.0217,0.6655932
1966.0217,0.665466
1968.0217,0.6649996
1970.0216,0.66472405
1972.0216,0.6644273
1974.0216,0.6641305
1976.0216,0.66402453
1978.0216,0.6640033
1980.0216,0.6640033
1982.0215,0.6640669
1984.0215,0.66398215
1986.0215,0.66353697
1988.0215,0.6631766
1990.0215,0.6633886
1992.0215,0.6635582
1994.0214,0.663325
1996.0214,0.66309184
1998.0214,0.663007
2000.0214,0.6628798
2002.0214,0.6625407
2004.0214,0.6623075
2006.0214,0.6621379
2008.0212,0.66190475
2010.0212,0.6619259
2012.0212,0.6620743
2014.0212,0.6621803
2016.0212,0.6623499
2018.0212,0.6624135
2020.0211,0.6626043
2022.0211,0.66279507
2024.0211,0.6628798
2026.0211,0.66277385
2028.0211,0.66279507
2030.0211,0.66277385
2032.021,0.66279507
2034.021,0.66271025
2036.021,0.6624559
2038.021,0.6624135
2040.021,0.6623287
2042.021,0.6620531
2044.021,0.66203195
2046.0209,0.6621379
2048.021,0.6621379
2050.021,0.66194713
2052.0208,0.6617352
2054.0208,0.66181993
2056.0208,0.66175634
2058.0208,0.66158676
2060.0208,0.6614384
2062.0208,0.66152316
2064.0208,0.6617352
2066.0208,0.66175634
2068.0208,0.66162914
2070.0208,0.6614808
2072.0208,0.6614384
2074.0208,0.6612476
2076.0205,0.66101444
2078.0205,0.66095084
2080.0205,0.66097206
2082.0205,0.66082364
2084.0205,0.6605481
2086.0205,0.66044205
2088.0205,0.6601029
2090.0205,0.6594034
2092.0205,0.6591702
2094.0205,0.6592126
2096.0205,0.6590854
2098.0205,0.65893704
2100.0205,0.65889466
2102.0203,0.6589158
2104.0203,0.65900064
2106.0203,0.6593398
2108.0203,0.65957296
2110.0203,0.6598485
2112.0203,0.66008174
2114.0203,0.6601665
2116.0203,0.6602725
2118.0203,0.6601029
2120.0203,0.65982735
2122.0203,0.6596578
2124.0203,0.6597214
2126.0203,0.65974253
2128.02,0.6598485
2130.02,0.66001815
2132.02,0.6600605
2134.02,0.6600605
2136.02,0.6599333
2138.02,0.6596578
2140.02,0.6596578
2142.02,0.6597214
2144.02,0.6596578
2146.02,0.65970016
2148.02,0.65970016
2150.02,0.6595306
2152.0198,0.659255
2154.0198,0.6589794
2156.0198,0.65887344
2158.0198,0.6588522
2160.0198,0.65889466
2162.0198,0.65893704
2164.0198,0.65880984
2166.0198,0.6586615
2168.0198,0.6586615
2170.0198,0.658725
2172.0198,0.6584495
2174.0198,0.6582163
2176.0198,0.6581527
2178.0195,0.6579831
2180.0195,0.65768635
2182.0195,0.65768635
2184.0195,0.6579619
2186.0195,0.6581103
2188.0195,0.6582375
2190.0195,0.6582375
2192.0195,0.6581739
2194.0195,0.6582375
2196.0195,0.6583011
2198.0195,0.6583223
2200.0195,0.6583223
2202.0195,0.6582163
2204.0193,0.6581527
2206.0193,0.6583647
2208.0193,0.6583859
2210.0193,0.6581739
2212.0193,0.6579619
2214.0193,0.6579195
2216.0193,0.6577923
2218.0193,0.657538
2220.0193,0.6574532
2222.0193,0.65730476
2224.0193,0.65705043
2226.0193,0.6570292
2228.019,0.657114
2230.019,0.6571988
2232.019,0.65722
2234.019,0.6571776
2236.019,0.6571564
2238.019,0.6569656
2240.019,0.65679604
2242.019,0.6568384
2244.019,0.65675366
2246.019,0.6565205
2248.019,0.6563933
2250.019,0.65656286
2252.019,0.65649927
2254.0188,0.6562449
2256.0188,0.6562873
2258.0188,0.6564569
2260.0188,0.65656286
2262.0188,0.65681726
2264.0188,0.65692323
2266.0188,0.65660524
2268.0188,0.6563721
2270.0188,0.6565205
2272.0188,0.65649927
2274.0188,0.6562661
2276.0188,0.6560753
2278.0186,0.6559057
2280.0186,0.65567255
2282.0186,0.655397
2284.0186,0.6552274
2286.0186,0.6551214
2288.0186,0.65480345
2290.0186,0.65478224
2292.0186,0.6551638
2294.0186,0.6550578
2296.0186,0.6545067
2298.0186,0.6543371
2300.0186,0.6544007
2302.0186,0.6540191
2304.0183,0.6531288
2306.0183,0.65266246
2308.0183,0.65221727
2310.0183,0.65170854
2312.0183,0.65185696
2314.0183,0.6521537
2316.0183,0.6523869
2318.0183,0.65240806
2320.0183,0.6522385
2322.0183,0.6520053
2324.0183,0.6515602
2326.0183,0.6510938
2328.0183,0.6506699
2330.018,0.65069103
2332.018,0.6503519
2334.018,0.64975834
2336.018,0.64988554
2338.018,0.64969474
2340.018,0.649292
2342.018,0.64982194
2344.018,0.65069103
2346.018,0.65090305
2348.018,0.6512846
2350.018,0.65172976
2352.018,0.65170854
2354.0178,0.65071225
2356.0178,0.64977956
2358.0178,0.6494192
2360.0178,0.6487408
2362.0178,0.64888924
2364.0178,0.6492708
2366.0178,0.64965236
2368.0178,0.6499703
2370.0178,0.6501611
2372.0178,0.65052146
2374.0178,0.65075463
2376.0178,0.6510514
2378.0178,0.6517509
2380.0176,0.65234447
2382.0176,0.65272605
2384.0176,0.653044
2386.0176,0.65353155
2388.0176,0.65359515
2390.0176,0.65346795
2392.0176,0.6531288
2394.0176,0.6530016
2396.0176,0.6531712
2398.0176,0.6530652
2400.0176,0.6526837
2402.0176,0.65266246
2404.0176,0.65240806
2406.0173,0.6521749
2408.0173,0.65234447
2410.0173,0.65259886
2412.0173,0.6525565
2414.0173,0.65251404
2416.0173,0.6524293
2418.0173,0.6521113
2420.0173,0.65209013
2422.0173,0.6524293
2424.0173,0.65240806
2426.0173,0.65209013
2428.0173,0.65185696
2430.017,0.65170854
2432.017,0.65172976
2434.017,0.65189934
2436.017,0.6520477
2438.017,0.6521113
2440.017,0.6520477
2442.017,0.65166616
2444.017,0.65166616
2446.017,0.6519841
2448.017,0.6521113
2450.017,0.6521749
2452.017,0.6522597
2454.017,0.6526201
2456.0168,0.652938
2458.0168,0.6528108
2460.0168,0.65257764
2462.0168,0.6522597
2464.0168,0.6521537
2466.0168,0.6523657
2468.0168,0.65251404
2470.0168,0.65251404
2472.0168,0.6523657
2474.0168,0.6522385
2476.0168,0.6523657
2478.0168,0.6524929
2480.0168,0.6521749
2482.0166,0.6519841
2484.0166,0.6520689
2486.0166,0.6521749
2488.0166,0.6521113
2490.0166,0.6519841
2492.0166,0.6519205
2494.0166,0.6518781
2496.0166,0.65170854
2498.0166,0.65158135
2500.0166,0.6517509
2502.0166,0.65189934
2504.0166,0.65170854
2506.0164,0.65151775
2508.0164,0.6515602
2510.0164,0.65147537
2512.0164,0.651221
2514.0164,0.65139055
2516.0164,0.6513694
2518.0164,0.6511362
2520.0164,0.651009
2522.0164,0.6509878
2524.0164,0.6511574
2526.0164,0.6513058
2528.0164,0.6512422
2530.0164,0.6510938
2532.016,0.650797
2534.016,0.6504155
2536.016,0.6501823
2538.016,0.6500551
2540.016,0.6501611
2542.016,0.6500551
2544.016,0.64984316
2546.016,0.64963114
2548.016,0.64944035
2550.016,0.64950395
2552.016,0.6494828
2554.016,0.649186
2556.0159,0.64871967
2558.0159,0.6485925
2560.0159,0.6482957
2562.0159,0.6477233
2564.0159,0.64738417
2566.0159,0.64744776
2568.0159,0.64751136
2570.0159,0.6472146
2572.0159,0.6471934
2574.0159,0.64742655
2576.0159,0.64780813
2578.0159,0.64838046
2580.0159,0.648868
2582.0156,0.649186
2584.0156,0.64937675
2586.0156,0.64969474
2588.0156,0.64975834
2590.0156,0.64937675
2592.0156,0.6490588
2594.0156,0.64863485
2596.0156,0.6479777
2598.0156,0.6472994
2600.0156,0.647045
2602.0156,0.6469814
2604.0156,0.6469178
2606.0156,0.6474054
2608.0154,0.6482109
2610.0154,0.64848644
2612.0154,0.6485925
2614.0154,0.6488044
2616.0154,0.64869845
2618.0154,0.64857125
2620.0154,0.6485289
2622.0154,0.64831686
2624.0154,0.6479141
2626.0154,0.6477233
2628.0154,0.6479565
2630.0154,0.6480625
2632.0151,0.64776576
2634.0151,0.6476597
2636.0151,0.64738417
2638.0151,0.6470662
2640.0151,0.647045
2642.0151,0.6468966
2644.0151,0.64700264
2646.0151,0.64749014
2648.0151,0.6479565
2650.0151,0.6481261
2652.0151,0.6481473
2654.0151,0.64774454
2656.0151,0.64749014
2658.015,0.64744776
2660.015,0.64742655
2662.015,0.6474054
2664.015,0.64742655
2666.015,0.64732057
2668.015,0.647469
2670.015,0.6479141
2672.015,0.6484017
2674.015,0.64855003
2676.015,0.64882565
2678.015,0.6491224
2680.015,0.6490588
2682.015,0.6489316
2684.0146,0.64876205
2686.0146,0.64838046
2688.0146,0.6481049
2690.0146,0.6482321
2692.0146,0.64838046
2694.0146,0.6482321
2696.0146,0.6479777
2698.0146,0.64787173
2700.0146,0.6480625
2702.0146,0.6481685
2704.0146,0.6479989
2706.0146,0.64793533
2708.0144,0.6477869
2710.0144,0.6479989
2712.0144,0.6478929
2714.0144,0.6475326
2716.0144,0.6477233
2718.0144,0.64768094
2720.0144,0.6472994
2722.0144,0.6470238
2724.0144,0.6469602
2726.0144,0.6469602
2728.0144,0.64674824
2730.0144,0.646833
2732.0144,0.64657867
2734.0142,0.64657867
2736.0142,0.64700264
2738.0142,0.6469814
2740.0142,0.6466634
2742.0142,0.6465998
2744.0142,0.64657867
2746.0142,0.64668465
2748.0142,0.6470662
2750.0142,0.6469814
2752.0142,0.6468542
2754.0142,0.64681184
2756.0142,0.64668465
2758.014,0.6468542
2760.014,0.6470662
2762.014,0.6469178
2764.014,0.64649385
2766.014,0.6461971
2768.014,0.6460699
2770.014,0.6459851
2772.014,0.6460487
2774.014,0.6459003
2776.014,0.6460911
2778.014,0.6463879
2780.014,0.6463455
2782.014,0.6460487
2784.0137,0.6459215
2786.0137,0.6460275
2788.0137,0.6460487
2790.0137,0.6462183
2792.0137,0.6462607
2794.0137,0.6461123
2796.0137,0.6459851
2798.0137,0.64581555
2800.0137,0.64560354
2802.0137,0.6451584
2804.0137,0.6448828
2806.0137,0.6450312
2808.0137,0.6452856
2810.0134,0.64560354
2812.0134,0.6456459
2814.0134,0.6452856
2816.0134,0.6452008
2818.0134,0.64517957
2820.0134,0.6451584
2822.0134,0.645222
2824.0134,0.6449676
2826.0134,0.6447768
2828.0134,0.6447132
2830.0134,0.64450127
2832.0134,0.6443317
2834.0132,0.6439925
2836.0132,0.6437593
2838.0132,0.6437593
2840.0132,0.64322937
2842.0132,0.64246625
2844.0132,0.64185154
2846.0132,0.6409612
2848.0132,0.6399013
2850.0132,0.6389474
2852.0132,0.6381631
2854.0132,0.6379511
2856.0132,0.63826907
2858.0132,0.6386718
2860.013,0.63939255
2862.013,0.6401345
2864.013,0.64064324
2866.013,0.6412368
2868.013,0.64138514
2870.013,0.6413004
2872.013,0.64153355
2874.013,0.6416183
2876.013,0.64159715
2878.013,0.64157593
2880.013,0.64153355
2882.013,0.6414276
2884.013,0.641258
2886.0127,0.64077044
2888.0127,0.6396681
2890.0127,0.638799
2892.0127,0.639011
2894.0127,0.6395409
2896.0127,0.63964695
2898.0127,0.6394774
2900.0127,0.63913816
2902.0127,0.63920176
2904.0127,0.63956213
2906.0127,0.63939255
2908.0127,0.63926536
2910.0125,0.63913816
2912.0125,0.63852346
2914.0125,0.6375483
2916.0125,0.6367216
2918.0125,0.6361069
2920.0125,0.6350894
2922.0125,0.63443226
2924.0125,0.63434744
2926.0125,0.63447464
2928.0125,0.6348774
2930.0125,0.6355981
2932.0125,0.6361705
2934.0125,0.63676405
2936.0122,0.63737875
2938.0122,0.6379299
2940.0122,0.6386082
2942.0122,0.6393502
2944.0122,0.6402405
2946.0122,0.64045244
2948.0122,0.6400921
2950.0122,0.6401133
2952.0122,0.6401769
2954.0122,0.6400709
2956.0122,0.6399861
2958.0122,0.6399437
2960.0122,0.6400073
2962.012,0.6398801
2964.012,0.63949853
2966.012,0.6394774
2968.012,0.6398165
2970.012,0.6404313
2972.012,0.64083403
2974.012,0.6405584
2976.012,0.64034647
2978.012,0.64028287
2980.012,0.64064324
2982.012,0.6411732
2984.012,0.6413004
2986.0117,0.64134276
2988.0117,0.64151233
2990.0117,0.6416183
2992.0117,0.6416183
2994.0117,0.6417031
2996.0117,0.6417667
2998.0117,0.6417455
3000.0117,0.6421271
3002.0117,0.6422543
3004.0117,0.6421907
3006.0117,0.6420635
3008.0117,0.6419575
3010.0117,0.6419999
3012.0115,0.6419999
3014.0115,0.6419787
3016.0115,0.6419363
3018.0115,0.6418091
3020.0115,0.64151233
3022.0115,0.64108837
3024.0115,0.64094
3026.0115,0.64064324
3028.0115,0.6398801
3030.0115,0.6396681
3032.0115,0.6397317
3034.0115,0.6398165
3036.0112,0.63960457
3038.0112,0.6395409
3040.0112,0.6402193
3042.0112,0.6409188
3044.0112,0.6411308
3046.0112,0.64094
3048.0112,0.64053726
3050.0112,0.64026165
3052.0112,0.6400497
3054.0112,0.6395409
3056.0112,0.6388838
3058.0112,0.6388626
3060.0112,0.63951975
3062.011,0.64057964
3064.011,0.6411308
3066.011,0.64115196
3068.011,0.64108837
3070.011,0.64089763
3072.011,0.6408128
3074.011,0.6406856
3076.011,0.64094
3078.011,0.6411732
3080.011,0.64072806
3082.011,0.64038885
3084.011,0.64028287
3086.011,0.6400709
3088.0107,0.6399649
3090.0107,0.6399861
3092.0107,0.6396257
3094.0107,0.6389898
3096.0107,0.6389262
3098.0107,0.639117
3100.0107,0.6392442
3102.0107,0.63939255
3104.0107,0.6394774
3106.0107,0.6395409
3108.0107,0.6395409
3110.0107,0.63920176
3112.0105,0.6390322
3114.0105,0.639011
3116.0105,0.63869303
3118.0105,0.6384175
3120.0105,0.6387354
3122.0105,0.6391806
3124.0105,0.63907456
3126.0105,0.63869303
3128.0105,0.63837504
3130.0105,0.6382267
3132.0105,0.6381843
3134.0105,0.63826907
3136.0105,0.63862944
3138.0103,0.63862944
3140.0103,0.6383539
3142.0103,0.6381631
3144.0103,0.6379087
3146.0103,0.6381631
3148.0103,0.6380995
3150.0103,0.6379723
3152.0103,0.6381843
3154.0103,0.6382267
3156.0103,0.6378451
3158.0103,0.6376755
3160.0103,0.6377179
3162.0103,0.6377815
3164.01,0.6376543
3166.01,0.63742113
3168.01,0.6371668
3170.01,0.6367852
3172.01,0.636658
3174.01,0.63650966
3176.01,0.6359373
3178.01,0.6355981
3180.01,0.63536495
3182.01,0.6350046
3184.01,0.6348774
3186.01,0.63441104
3188.0098,0.63398707
3190.0098,0.6337751
3192.0098,0.6333935
3194.0098,0.632906
3196.0098,0.6324396
3198.0098,0.63235486
3200.0098,0.63341475
3202.0098,0.63498336
3204.0098,0.6358313
3206.0098,0.6360857
3208.0098,0.6361069
3210.0098,0.63619167
3212.0098,0.6365308
3214.0095,0.63657326
3216.0095,0.63661563
3218.0095,0.6364673
3220.0095,0.63644606
3222.0095,0.63606447
3224.0095,0.6359373
3226.0095,0.6361493
3228.0095,0.6361493
3230.0095,0.6362129
3232.0095,0.63606447
3234.0095,0.6355981
3236.0095,0.6355981
3238.0093,0.63568294
3240.0093,0.63538617
3242.0093,0.6350894
3244.0093,0.6348986
3246.0093,0.6348774
3248.0093,0.6348562
3250.0093,0.63441104
3252.0093,0.6341355
3254.0093,0.6340931
3256.0093,0.6339023
3258.0093,0.63362676
3260.0093,0.6335207
3262.0093,0.6339023
3264.009,0.63362676
3266.009,0.632906
3268.009,0.6328212
3270.009,0.6329484
3272.009,0.63273644
3274.009,0.6327152
3276.009,0.63239723
3278.009,0.6318885
3280.009,0.6316765
3282.009,0.63140094
3284.009,0.63121015
3286.009,0.63101935
3288.009,0.6308074
3290.0088,0.630871
3292.0088,0.6308922
3294.0088,0.63046825
3296.0088,0.6301291
3298.0088,0.6299383
3300.0088,0.6296203
3302.0088,0.62913275
3304.0088,0.6287936
3306.0088,0.62873
3308.0088,0.62877244
3310.0088,0.62845445
3312.0088,0.6278397
3314.0085,0.6272885
3316.0085,0.6269282
3318.0085,0.6267374
3320.0085,0.6266526
3322.0085,0.62637705
3324.0085,0.62618625
3326.0085,0.6258471
3328.0085,0.6251476
3330.0085,0.6245752
3332.0085,0.62419367
3334.0085,0.6237485
3336.0085,0.62330335
3338.0085,0.62266743
3340.0083,0.6219467
3342.0083,0.6213107
3344.0083,0.6206324
3346.0083,0.6197633
3348.0083,0.6190426
3350.0083,0.61827946
3352.0083,0.6167744
3354.0083,0.61531174
3356.0083,0.61416703
3358.0083,0.6127468
3360.0083,0.6111357
3362.0083,0.6087404
3364.0083,0.6057091
3366.008,0.60255057
3368.008,0.59892577
3370.008,0.5942622
3372.008,0.5879452
3374.008,0.57967806
3376.008,0.56867635
3378.008,0.5537318
3380.008,0.5346325
3382.008,0.51572394
3384.008,0.5117388
3386.008,0.53690064
3388.008,0.5790845
3390.0078,0.61306477
3392.0078,0.63129497
3394.0078,0.6390958
3396.0078,0.6416183
3398.0078,0.6421059
3400.0078,0.6419575
3402.0078,0.64115196
3404.0078,0.6399225
3406.0078,0.63875663
3408.0078,0.6379087
3410.0078,0.63737875
3412.0078,0.63674283
3414.0078,0.6355981
3416.0076,0.634517
3418.0076,0.6340083
3420.0076,0.63335115
3422.0076,0.6318249
3424.0076,0.63034105
3426.0076,0.62964153
3428.0076,0.6296627
3430.0076,0.62915397
3432.0076,0.62807286
3434.0076,0.62718254
3436.0076,0.6266102
3438.0076,0.62557155
3440.0076,0.62442684
3442.0073,0.62330335
3444.0073,0.62224346
3446.0073,0.62141675
3448.0073,0.61959374
3450.0073,0.61732554
3452.0073,0.6157357
3454.0073,0.61367947
3456.0073,0.61096615
3458.0073,0.60793483
3460.0073,0.60443723
3462.0073,0.5999432
3464.0073,0.5943682
3466.007,0.58769083
3468.007,0.5785546
3470.007,0.56784964
3472.007,0.5576958
3474.007,0.5531595
3476.007,0.5609391
3478.007,0.580314
3480.007,0.6025082
3482.007,0.62141675
3484.007,0.63430506
3486.007,0.64157593
3488.007,0.6454552
3490.007,0.64763856
3492.0068,0.64863485
3494.0068,0.649292
3496.0068,0.64956754
3498.0068,0.6492496
3500.0068,0.6485925
3502.0068,0.6483593
3504.0068,0.6479989
3506.0068,0.647257
3508.0068,0.6467694
3510.0068,0.64662105
3512.0068,0.6463879
3514.0068,0.6463243
3516.0066,0.6461971
3518.0066,0.6459215
3520.0066,0.64573073
3522.0066,0.64556116
3524.0066,0.64547634
3526.0066,0.64492524
3528.0066,0.6445224
3530.0066,0.6446496
3532.0066,0.6446496
3534.0066,0.64467084
3536.0066,0.64524317
3538.0066,0.645222
3540.0066,0.6452856
3542.0063,0.6450524
3544.0063,0.64479804
3546.0063,0.64469206
3548.0063,0.64460725
3550.0063,0.64467084
3552.0063,0.6448404
3554.0063,0.64501
3556.0063,0.6453916
3558.0063,0.6454552
3560.0063,0.64549756
3562.0063,0.64556116
3564.0063,0.645328
3566.0063,0.64479804
3568.006,0.6439925
3570.006,0.64448005
3572.006,0.6457095
3574.006,0.6463455
3576.006,0.64643025
3578.006,0.64649385
3580.006,0.64674824
3582.006,0.6469814
3584.006,0.647469
3586.006,0.64738417
3588.006,0.64562476
3590.006,0.6458367
3592.0059,0.6469814
3594.0059,0.6470238
3596.0059,0.6464515
3598.0059,0.6459851
3600.0059,0.6462819
3602.0059,0.6471298
3604.0059,0.6477869
3606.0059,0.64751136
3608.0059,0.6469178
3610.0059,0.64668465
3612.0059,0.6471086
3614.0059,0.6474054
3616.0059,0.64751136
3618.0056,0.64749014
3620.0056,0.6471722
3622.0056,0.6470238
3624.0056,0.64751136
3626.0056,0.6480837
3628.0056,0.6483381
3630.0056,0.64657867
3632.0056,0.6461335
3634.0056,0.6468966
3636.0056,0.64770216
3638.0056,0.6482745
3640.0056,0.6484653
3642.0056,0.6484229
3644.0054,0.64876205
3646.0054,0.649186
3648.0054,0.64861363
3650.0054,0.6479565
3652.0054,0.6474054
3654.0054,0.6481473
3656.0054,0.6483593
3658.0054,0.6481685
3660.0054,0.6492284
3662.0054,0.64937675
3664.0054,0.6492284
3666.0054,0.64971596
3668.0051,0.6502247
3670.0051,0.64944035
3672.0051,0.6480837
3674.0051,0.64952517
3676.0051,0.6493556
3678.0051,0.647469
3680.0051,0.6480625
3682.0051,0.6490588
3684.0051,0.65001273
3686.0051,0.6504791
3688.0051,0.65045786
3690.0051,0.6503095
3692.0051,0.6490588
3694.005,0.64871967
3696.005,0.64908
3698.005,0.6492708
3700.005,0.64984316
3702.005,0.6498643
3704.005,0.6491436
3706.005,0.64937675
3708.005,0.6496099
3710.005,0.64956754
3712.005,0.6490164
3714.005,0.6485289
3716.005,0.6489316
3718.0046,0.64971596
3720.0046,0.6501611
3722.0046,0.6498007
3724.0046,0.6490376
3726.0046,0.64888924
3728.0046,0.648868
3730.0046,0.64937675
3732.0046,0.6500975
3734.0046,0.64984316
3736.0046,0.64838046
3738.0046,0.6478505
3740.0046,0.6480625
3742.0046,0.6480201
3744.0044,0.64825326
3746.0044,0.6474054
3748.0044,0.6480837
3750.0044,0.64761734
3752.0044,0.64780813
3754.0044,0.64863485
3756.0044,0.64895284
3758.0044,0.64939797
3760.0044,0.6492496
3762.0044,0.6491648
3764.0044,0.64965236
3766.0044,0.6491648
3768.0044,0.6489952
3770.0042,0.64952517
3772.0042,0.6492284
3774.0042,0.6493344
3776.0042,0.6494192
3778.0042,0.6493556
3780.0042,0.648974
3782.0042,0.64869845
3784.0042,0.648974
3786.0042,0.6492708
3788.0042,0.64977956
3790.0042,0.65020347
3792.0042,0.65052146
3794.004,0.6505427
3796.004,0.6501611
3798.004,0.6490376
3800.004,0.64946157
3802.004,0.6498007
3804.004,0.6487832
3806.004,0.6490164
3808.004,0.64861363
3810.004,0.64882565
3812.004,0.64895284
3814.004,0.64965236
3816.004,0.65039426
3818.004,0.6500339
3820.0037,0.6505427
3822.0037,0.64939797
3824.0037,0.64869845
3826.0037,0.6494828
3828.0037,0.64963114
3830.0037,0.64988554
3832.0037,0.65020347
3834.0037,0.65045786
3836.0037,0.6503095
3838.0037,0.64944035
3840.0037,0.64857125
3842.0037,0.64863485
3844.0037,0.64871967
3846.0034,0.64867723
3848.0034,0.6491224
3850.0034,0.64946157
3852.0034,0.64876205
3854.0034,0.6462183
3856.0034,0.6472146
3858.0034,0.6479777
3860.0034,0.64844406
3862.0034,0.6489952
3864.0034,0.6490376
3866.0034,0.64855003
3868.0034,0.6496099
3870.0032,0.6492072
3872.0032,0.6461547
3874.0032,0.64668465
3876.0032,0.64761734
3878.0032,0.6484017
3880.0032,0.64863485
3882.0032,0.64848644
3884.0032,0.6491224
3886.0032,0.64882565
3888.0032,0.64861363
3890.0032,0.64937675
3892.0032,0.6492072
3894.0032,0.64863485
3896.003,0.6491224
3898.003,0.6499703
3900.003,0.64982194
3902.003,0.64939797
3904.003,0.64937675
3906.003,0.64888924
3908.003,0.64895284
3910.003,0.6497371
3912.003,0.65075463
3914.003,0.65090305
3916.003,0.6506063
3918.003,0.65050024
3920.003,0.6501823
3922.0027,0.6501187
3924.0027,0.6506699
3926.0027,0.6503095
3928.0027,0.6501399
3930.0027,0.6504155
3932.0027,0.65062743
3934.0027,0.65075463
3936.0027,0.6507334
3938.0027,0.6504791
3940.0027,0.6502247
3942.0027,0.65033066
3944.0027,0.6501611
3946.0024,0.65026706
3948.0024,0.6504155
3950.0024,0.6501399
3952.0024,0.65033066
3954.0024,0.65039426
3956.0024,0.65045786
3958.0024,0.65077585
3960.0024,0.65062743
3962.0024,0.6506063
3964.0024,0.6508606
3966.0024,0.65064865
3968.0024,0.6510302
3970.0024,0.65151775
3972.0022,0.651115
3974.0022,0.65071225
3976.0022,0.65096664
3978.0022,0.6511574
3980.0022,0.6513482
3982.0022,0.65151775
3984.0022,0.6514118
3986.0022,0.6512634
3988.0022,0.65147537
3990.0022,0.6514966
3992.0022,0.6512422
3994.0022,0.65096664
3996.002,0.6508182
3998.002,0.65090305
4000.002,0.6509454



