waveno,amplitude
1.0,0.3395147
2.0,0.3304305
3.0,0.3243003
4.0,0.3194184
5.0,0.315641
6.0,0.312652
7.0,0.3066994
8.0,0.3057058
9.0,0.3048787
10.0,0.3044007
11.0,0.3041968
12.0,0.3042469
13.0,0.304335
14.0,0.304594
15.0,0.3050037
16.0,0.3055118
17.0,0.3062915
18.0,0.3073023
19.0,0.3086277
20.0,0.3102581
21.0,0.3123921
22.0,0.3151009
23.0,0.3176908
24.0,0.3196948
25.0,0.3209075
26.0,0.3215224
27.0,0.321913
28.0,0.3222899
29.0,0.3225182
30.0,0.3225611
31.0,0.3224139
32.0,0.321978
33.0,0.32117
34.0,0.3200381
35.0,0.318591
36.0,0.3167889
37.0,0.3148487
38.0,0.3129731
39.0,0.3111565
40.0,0.3093348
41.0,0.3074521
42.0,0.3055912
43.0,0.3037864
44.0,0.3019075
45.0,0.2998893
46.0,0.2977436
47.0,0.2955226
48.0,0.2933535
49.0,0.2914307
50.0,0.2897957
51.0,0.2884493
52.0,0.2874403
53.0,0.2866856
54.0,0.2860754
55.0,0.2855361
56.0,0.2851046
57.0,0.2846985
58.0,0.284118
59.0,0.2835053
60.0,0.2831023
61.0,0.2830408
62.0,0.2834081
63.0,0.2841245
64.0,0.2848604
65.0,0.2851063
66.0,0.2847854
67.0,0.2841564
68.0,0.2832835
69.0,0.2822811
70.0,0.281332
71.0,0.2805801
72.0,0.2802192
73.0,0.2801569
74.0,0.2799485
75.0,0.2795141
76.0,0.2790498
77.0,0.2785818
78.0,0.2780035
79.0,0.2771606
80.0,0.2761534
81.0,0.2751536
82.0,0.2742347
83.0,0.2736052
84.0,0.2732947
85.0,0.2731818
86.0,0.27325
87.0,0.2733817
88.0,0.273384
89.0,0.2731538
90.0,0.2727922
91.0,0.2724121
92.0,0.2720884
93.0,0.2720472
94.0,0.2723577
95.0,0.2728372
96.0,0.273509
97.0,0.2745975
98.0,0.2763046
99.0,0.278447
100.0,0.2794247
101.0,0.2782537
102.0,0.2763574
103.0,0.274703
104.0,0.2729823
105.0,0.2710607
106.0,0.2691056
107.0,0.2672971
108.0,0.2657473
109.0,0.2644275
110.0,0.2632095
111.0,0.2620577
112.0,0.2609365
113.0,0.2598352
114.0,0.2588362
115.0,0.2579598
116.0,0.2572145
117.0,0.2566101
118.0,0.2561855
119.0,0.2560199
120.0,0.2560444
121.0,0.2561879
122.0,0.2565046
123.0,0.2569635
124.0,0.2575025
125.0,0.2581511
126.0,0.2588126
127.0,0.2593553
128.0,0.259826
129.0,0.2602929
130.0,0.2607374
131.0,0.2611368
132.0,0.2615117
133.0,0.2619019
134.0,0.262309
135.0,0.2627022
136.0,0.263132
137.0,0.2636096
138.0,0.2641001
139.0,0.2646199
140.0,0.2651202
141.0,0.2656217
142.0,0.2661581
143.0,0.2666841
144.0,0.2672325
145.0,0.2678132
146.0,0.26834
147.0,0.2688761
148.0,0.2695208
149.0,0.270146
150.0,0.2707766
151.0,0.2715275
152.0,0.2723491
153.0,0.2732238
154.0,0.274184
155.0,0.2752328
156.0,0.2763057
157.0,0.2774078
158.0,0.2786166
159.0,0.2798634
160.0,0.2811217
161.0,0.282432
162.0,0.2837843
163.0,0.2851774
164.0,0.2865392
165.0,0.2878775
166.0,0.2892194
167.0,0.2905469
168.0,0.2919027
169.0,0.2932884
170.0,0.2946277
171.0,0.2958891
172.0,0.2971503
173.0,0.2984429
174.0,0.299732
175.0,0.3010049
176.0,0.3022668
177.0,0.3035149
178.0,0.304768
179.0,0.3060205
180.0,0.3072347
181.0,0.308403
182.0,0.3095128
183.0,0.3106109
184.0,0.3117109
185.0,0.3127568
186.0,0.31376
187.0,0.3147285
188.0,0.3156558
189.0,0.3164166
190.0,0.316797
191.0,0.3164598
192.0,0.3150568
193.0,0.3122127
194.0,0.3078921
195.0,0.3024509
196.0,0.2963397
197.0,0.2904989
198.0,0.2851781
199.0,0.280645
200.0,0.2771235
201.0,0.2743586
202.0,0.2722218
203.0,0.2704417
204.0,0.2688771
205.0,0.2675844
206.0,0.266582
207.0,0.2658804
208.0,0.2654212
209.0,0.2650878
210.0,0.2648333
211.0,0.2647219
212.0,0.2646866
213.0,0.2646682
214.0,0.2647001
215.0,0.2648138
216.0,0.2649176
217.0,0.2649664
218.0,0.2650982
219.0,0.2653137
220.0,0.2654928
221.0,0.2656267
222.0,0.2657915
223.0,0.2660124
224.0,0.2662336
225.0,0.2664424
226.0,0.2666539
227.0,0.2668516
228.0,0.2670327
229.0,0.2672184
230.0,0.2674391
231.0,0.2676568
232.0,0.2678171
233.0,0.2679792
234.0,0.2681853
235.0,0.2683579
236.0,0.2685051
237.0,0.2687021
238.0,0.2688774
239.0,0.2690065
240.0,0.2691554
241.0,0.2693144
242.0,0.2694423
243.0,0.2695643
244.0,0.2697223
245.0,0.2698626
246.0,0.2699639
247.0,0.2700874
248.0,0.2702493
249.0,0.2703992
250.0,0.2705227
251.0,0.2706339
252.0,0.2707265
253.0,0.2707953
254.0,0.2708458
255.0,0.2709234
256.0,0.2710271
257.0,0.2711217
258.0,0.2712422
259.0,0.2714216
260.0,0.2716066
261.0,0.2717505
262.0,0.2718649
263.0,0.2719652
264.0,0.2720773
265.0,0.2721692
266.0,0.2721909
267.0,0.2722287
268.0,0.2723728
269.0,0.2725229
270.0,0.2726156
271.0,0.2727278
272.0,0.2728644
273.0,0.2729951
274.0,0.2731603
275.0,0.2733432
276.0,0.2734751
277.0,0.2736311
278.0,0.2738536
279.0,0.274014
280.0,0.2741313
281.0,0.2743168
282.0,0.2745065
283.0,0.2746352
284.0,0.2747633
285.0,0.2749619
286.0,0.2751876
287.0,0.2753607
288.0,0.2755092
289.0,0.2756573
290.0,0.2758398
291.0,0.27609
292.0,0.2763043
293.0,0.2764783
294.0,0.2766488
295.0,0.2767853
296.0,0.276984
297.0,0.277228
298.0,0.2774274
299.0,0.2776266
300.0,0.2778302
301.0,0.2780665
302.0,0.2783327
303.0,0.2785287
304.0,0.2787285
305.0,0.278992
306.0,0.2792492
307.0,0.2795146
308.0,0.279751
309.0,0.2799534
310.0,0.280183
311.0,0.2804518
312.0,0.280751
313.0,0.2810034
314.0,0.2812139
315.0,0.2814837
316.0,0.2817673
317.0,0.2820296
318.0,0.2823381
319.0,0.2826154
320.0,0.2828508
321.0,0.2831034
322.0,0.2833722
323.0,0.2836642
324.0,0.283938
325.0,0.2841891
326.0,0.284485
327.0,0.2848473
328.0,0.2851571
329.0,0.2853904
330.0,0.2856769
331.0,0.2860039
332.0,0.2862459
333.0,0.286507
334.0,0.2868389
335.0,0.2871392
336.0,0.2874305
337.0,0.2877045
338.0,0.2879698
339.0,0.288289
340.0,0.2886194
341.0,0.2888667
342.0,0.2891219
343.0,0.2894807
344.0,0.2898256
345.0,0.2900885
346.0,0.2903575
347.0,0.2906695
348.0,0.2909873
349.0,0.2913177
350.0,0.2916362
351.0,0.2918757
352.0,0.2921512
353.0,0.292552
354.0,0.2929706
355.0,0.2933165
356.0,0.2935851
357.0,0.2938692
358.0,0.2941875
359.0,0.2944836
360.0,0.2947878
361.0,0.2951248
362.0,0.2954915
363.0,0.2959009
364.0,0.2963104
365.0,0.2966739
366.0,0.2970546
367.0,0.2974702
368.0,0.2978028
369.0,0.2981185
370.0,0.2985102
371.0,0.2988773
372.0,0.299257
373.0,0.2996626
374.0,0.3000402
375.0,0.3004244
376.0,0.3007948
377.0,0.3011695
378.0,0.3015598
379.0,0.3019666
380.0,0.3023852
381.0,0.3028013
382.0,0.3032506
383.0,0.3036955
384.0,0.3041003
385.0,0.3044542
386.0,0.3048359
387.0,0.305275
388.0,0.3056662
389.0,0.3060725
390.0,0.3065368
391.0,0.3070125
392.0,0.3075148
393.0,0.3079515
394.0,0.3082939
395.0,0.3087285
396.0,0.3091955
397.0,0.3095449
398.0,0.3098491
399.0,0.3101642
400.0,0.310528
401.0,0.3108857
402.0,0.3112052
403.0,0.311578
404.0,0.3119921
405.0,0.3123898
406.0,0.3128118
407.0,0.3132635
408.0,0.3136846
409.0,0.314062
410.0,0.3144261
411.0,0.3148912
412.0,0.3153332
413.0,0.3155386
414.0,0.3158758
415.0,0.3165962
416.0,0.3173513
417.0,0.3179033
418.0,0.3184021
419.0,0.3189761
420.0,0.3195195
421.0,0.3200491
422.0,0.3206813
423.0,0.3214045
424.0,0.3221437
425.0,0.3228941
426.0,0.3237
427.0,0.324772
428.0,0.3261955
429.0,0.3272335
430.0,0.3272347
431.0,0.3266588
432.0,0.3260736
433.0,0.3255007
434.0,0.3248957
435.0,0.324275
436.0,0.3236466
437.0,0.3230336
438.0,0.3223873
439.0,0.3217693
440.0,0.3211882
441.0,0.3205867
442.0,0.3200908
443.0,0.3196034
444.0,0.3190014
445.0,0.318442
446.0,0.3181024
447.0,0.3178913
448.0,0.3176581
449.0,0.317473
450.0,0.3173845
451.0,0.3173528
452.0,0.3173303
453.0,0.3173675
454.0,0.3173975
455.0,0.3173496
456.0,0.3173995
457.0,0.3175729
458.0,0.3177247
459.0,0.3178434
460.0,0.3180293
461.0,0.3183116
462.0,0.3185407
463.0,0.318749
464.0,0.3189961
465.0,0.3191575
466.0,0.3193803
467.0,0.319676
468.0,0.3198892
469.0,0.320071
470.0,0.320341
471.0,0.3206607
472.0,0.3208549
473.0,0.3210599
474.0,0.321348
475.0,0.3215611
476.0,0.3217694
477.0,0.322077
478.0,0.3223802
479.0,0.3226341
480.0,0.3229155
481.0,0.3231493
482.0,0.3233461
483.0,0.3236053
484.0,0.3238986
485.0,0.3241624
486.0,0.3244079
487.0,0.324677
488.0,0.3249708
489.0,0.3252729
490.0,0.3254792
491.0,0.3256451
492.0,0.325927
493.0,0.3262733
494.0,0.3265962
495.0,0.3268195
496.0,0.3270111
497.0,0.3273495
498.0,0.3276643
499.0,0.3277705
500.0,0.3279331
501.0,0.328272
502.0,0.3285414
503.0,0.3287585
504.0,0.3290223
505.0,0.3293097
506.0,0.3295959
507.0,0.3298694
508.0,0.3302239
509.0,0.3305196
510.0,0.3307467
511.0,0.3310171
512.0,0.3312578
513.0,0.3314781
514.0,0.3317725
515.0,0.3321372
516.0,0.3323584
517.0,0.3325407
518.0,0.3328422
519.0,0.3330981
520.0,0.3333136
521.0,0.3335476
522.0,0.3337651
523.0,0.3339843
524.0,0.3342645
525.0,0.3345686
526.0,0.3349226
527.0,0.3352948
528.0,0.3355138
529.0,0.3357135
530.0,0.3359924
531.0,0.3362873
532.0,0.3365985
533.0,0.3368406
534.0,0.3370398
535.0,0.3373735
536.0,0.3376617
537.0,0.3378426
538.0,0.3382218
539.0,0.3386465
540.0,0.338872
541.0,0.3390159
542.0,0.3391939
543.0,0.3394906
544.0,0.3398239
545.0,0.3400742
546.0,0.3403274
547.0,0.3405778
548.0,0.3408008
549.0,0.3409843
550.0,0.3412422
551.0,0.3416133
552.0,0.3419486
553.0,0.3422545
554.0,0.3426029
555.0,0.3429574
556.0,0.3430578
557.0,0.3431307
558.0,0.343488
559.0,0.3438472
560.0,0.3441924
561.0,0.3445308
562.0,0.3447433
563.0,0.3450015
564.0,0.3453235
565.0,0.3455466
566.0,0.3457236
567.0,0.3459851
568.0,0.3462941
569.0,0.3465198
570.0,0.3467008
571.0,0.3469927
572.0,0.3473259
573.0,0.3475677
574.0,0.3478049
575.0,0.3481013
576.0,0.3483945
577.0,0.3486348
578.0,0.348814
579.0,0.3490592
580.0,0.3493094
581.0,0.3494962
582.0,0.3497669
583.0,0.3501171
584.0,0.3504649
585.0,0.3506791
586.0,0.3507836
587.0,0.350965
588.0,0.3512546
589.0,0.3515604
590.0,0.35195
591.0,0.3523145
592.0,0.3524854
593.0,0.3526787
594.0,0.3529723
595.0,0.3532858
596.0,0.3534363
597.0,0.3536062
598.0,0.3539473
599.0,0.3541069
600.0,0.354314
601.0,0.3547497
602.0,0.354949
603.0,0.3549618
604.0,0.3552045
605.0,0.3555463
606.0,0.3557832
607.0,0.3560037
608.0,0.3562973
609.0,0.3566366
610.0,0.3568484
611.0,0.3569523
612.0,0.3571875
613.0,0.3574985
614.0,0.3578013
615.0,0.3580345
616.0,0.3581785
617.0,0.3584123
618.0,0.3586688
619.0,0.3588142
620.0,0.3590283
621.0,0.3594445
622.0,0.3598329
623.0,0.3599772
624.0,0.3600286
625.0,0.3602619
626.0,0.3605938
627.0,0.360844
628.0,0.3609773
629.0,0.3611619
630.0,0.3614853
631.0,0.3617519
632.0,0.3619524
633.0,0.3620741
634.0,0.3621643
635.0,0.3623537
636.0,0.3625443
637.0,0.3627242
638.0,0.3629443
639.0,0.3631403
640.0,0.3633569
641.0,0.3636903
642.0,0.3639544
643.0,0.3640725
644.0,0.3642338
645.0,0.364473
646.0,0.3647539
647.0,0.3649908
648.0,0.3652131
649.0,0.3653315
650.0,0.3652782
651.0,0.3653603
652.0,0.3656355
653.0,0.3659267
654.0,0.3662274
655.0,0.3666103
656.0,0.3668132
657.0,0.3668223
658.0,0.3669912
659.0,0.3672667
660.0,0.3675809
661.0,0.3679426
662.0,0.3681774
663.0,0.3681981
664.0,0.3682566
665.0,0.3685305
666.0,0.3687591
667.0,0.3687938
668.0,0.368971
669.0,0.369361
670.0,0.3696347
671.0,0.3698213
672.0,0.370013
673.0,0.370223
674.0,0.370335
675.0,0.3703427
676.0,0.3705242
677.0,0.3707778
678.0,0.3709934
679.0,0.3711932
680.0,0.3713115
681.0,0.3713606
682.0,0.371564
683.0,0.3720253
684.0,0.3723792
685.0,0.3724823
686.0,0.3725746
687.0,0.3727852
688.0,0.3729748
689.0,0.3729749
690.0,0.3729823
691.0,0.3733151
692.0,0.3738059
693.0,0.3740652
694.0,0.3741957
695.0,0.3744159
696.0,0.3745995
697.0,0.3746366
698.0,0.3748612
699.0,0.3752945
700.0,0.3754539
701.0,0.375474
702.0,0.3756474
703.0,0.3757553
704.0,0.3757916
705.0,0.3760648
706.0,0.3764083
707.0,0.3765214
708.0,0.3765641
709.0,0.3767333
710.0,0.376927
711.0,0.3771653
712.0,0.3774357
713.0,0.377551
714.0,0.3775547
715.0,0.3775255
716.0,0.3776593
717.0,0.3780695
718.0,0.3784763
719.0,0.3786194
720.0,0.3786127
721.0,0.3787958
722.0,0.3791066
723.0,0.379263
724.0,0.3793345
725.0,0.3793987
726.0,0.379546
727.0,0.379868
728.0,0.3801244
729.0,0.3801785
730.0,0.3803093
731.0,0.3805699
732.0,0.380573
733.0,0.3806344
734.0,0.3810943
735.0,0.3812064
736.0,0.3809774
737.0,0.3813299
738.0,0.382044
739.0,0.3822793
740.0,0.3820754
741.0,0.3820867
742.0,0.3824415
743.0,0.3826907
744.0,0.3828122
745.0,0.3827008
746.0,0.3826438
747.0,0.382989
748.0,0.3832513
749.0,0.3835582
750.0,0.3838799
751.0,0.3841162
752.0,0.3843172
753.0,0.3841938
754.0,0.3841072
755.0,0.3842811
756.0,0.3845613
757.0,0.3848877
758.0,0.3849294
759.0,0.384705
760.0,0.384757
761.0,0.3851663
762.0,0.3856373
763.0,0.385913
764.0,0.3857625
765.0,0.3857149
766.0,0.386052
767.0,0.3862323
768.0,0.386215
769.0,0.3862409
770.0,0.3864906
771.0,0.3869015
772.0,0.3873155
773.0,0.3874606
774.0,0.3873656
775.0,0.3875839
776.0,0.3879616
777.0,0.3880778
778.0,0.3881002
779.0,0.3882554
780.0,0.3886593
781.0,0.3888181
782.0,0.3885638
783.0,0.388817
784.0,0.3893077
785.0,0.3895422
786.0,0.389985
787.0,0.3901201
788.0,0.3896637
789.0,0.3895552
790.0,0.3899558
791.0,0.3903009
792.0,0.3903316
793.0,0.3902698
794.0,0.390431
795.0,0.3907225
796.0,0.3911405
797.0,0.3915241
798.0,0.3915063
799.0,0.3912389
800.0,0.3912554
801.0,0.3917499
802.0,0.3922636
803.0,0.3926423
804.0,0.3927214
805.0,0.3925529
806.0,0.3926714
807.0,0.3928141
808.0,0.3929735
809.0,0.3931433
810.0,0.0
811.0,0.0
