waveno,amplitude
1.0,0.3911305
2.0,0.3815506
3.0,0.3754056
4.0,0.3705603
5.0,0.3667783
6.0,0.3637396
7.0,0.3581618
8.0,0.3572946
9.0,0.3566443
10.0,0.3562677
11.0,0.356078
12.0,0.3560033
13.0,0.3560453
14.0,0.3562289
15.0,0.356478
16.0,0.3567812
17.0,0.357229
18.0,0.3578449
19.0,0.3588084
20.0,0.3600564
21.0,0.3616615
22.0,0.3637668
23.0,0.3657933
24.0,0.3673106
25.0,0.3683738
26.0,0.3691854
27.0,0.3697636
28.0,0.3702293
29.0,0.3706052
30.0,0.3708018
31.0,0.3707398
32.0,0.3703867
33.0,0.3697292
34.0,0.3688
35.0,0.3675544
36.0,0.3660456
37.0,0.3645059
38.0,0.3630687
39.0,0.3617198
40.0,0.3603375
41.0,0.3589021
42.0,0.3575419
43.0,0.3562061
44.0,0.3547686
45.0,0.3531696
46.0,0.3514098
47.0,0.3496389
48.0,0.3479358
49.0,0.346395
50.0,0.3451291
51.0,0.3440652
52.0,0.343191
53.0,0.3425875
54.0,0.3421903
55.0,0.3418771
56.0,0.3416037
57.0,0.3412379
58.0,0.3406465
59.0,0.3399976
60.0,0.3395491
61.0,0.339421
62.0,0.3396137
63.0,0.3400019
64.0,0.3403821
65.0,0.3404943
66.0,0.3401926
67.0,0.3396141
68.0,0.3389095
69.0,0.3381765
70.0,0.337565
71.0,0.3370933
72.0,0.3367951
73.0,0.3367227
74.0,0.3367023
75.0,0.3366342
76.0,0.3365692
77.0,0.3364318
78.0,0.3360649
79.0,0.335382
80.0,0.3344414
81.0,0.3334635
82.0,0.3326633
83.0,0.3320964
84.0,0.3318182
85.0,0.3319077
86.0,0.3322783
87.0,0.3326726
88.0,0.3329113
89.0,0.333
90.0,0.3329363
91.0,0.3327938
92.0,0.3327059
93.0,0.3327273
94.0,0.3329955
95.0,0.333571
96.0,0.3343673
97.0,0.3354074
98.0,0.3370737
99.0,0.3393852
100.0,0.3405581
101.0,0.3393725
102.0,0.3373122
103.0,0.33557
104.0,0.3339124
105.0,0.3321
106.0,0.3302552
107.0,0.3286061
108.0,0.3271655
109.0,0.325851
110.0,0.324619
111.0,0.3234567
112.0,0.322371
113.0,0.3212984
114.0,0.3202543
115.0,0.3193501
116.0,0.3185719
117.0,0.3179281
118.0,0.3174713
119.0,0.3172127
120.0,0.3171898
121.0,0.3173456
122.0,0.3176424
123.0,0.3180665
124.0,0.3185828
125.0,0.3191982
126.0,0.3198165
127.0,0.3203548
128.0,0.3208005
129.0,0.3212066
130.0,0.3216184
131.0,0.3220112
132.0,0.3223931
133.0,0.3227342
134.0,0.3230851
135.0,0.3235081
136.0,0.3239463
137.0,0.324401
138.0,0.3248658
139.0,0.325323
140.0,0.3258237
141.0,0.3263406
142.0,0.326836
143.0,0.3273643
144.0,0.3279499
145.0,0.3285116
146.0,0.3290646
147.0,0.3296773
148.0,0.3302751
149.0,0.3308896
150.0,0.3316043
151.0,0.3323875
152.0,0.3332122
153.0,0.3340653
154.0,0.3349546
155.0,0.3359117
156.0,0.3369166
157.0,0.3379371
158.0,0.3389814
159.0,0.3400574
160.0,0.341177
161.0,0.3423416
162.0,0.3435121
163.0,0.3446535
164.0,0.3457846
165.0,0.3469388
166.0,0.3481116
167.0,0.3492521
168.0,0.3503555
169.0,0.3514897
170.0,0.3526264
171.0,0.353738
172.0,0.3548434
173.0,0.3558941
174.0,0.3569104
175.0,0.3579456
176.0,0.3590024
177.0,0.3600722
178.0,0.3611383
179.0,0.3621689
180.0,0.3631788
181.0,0.3642417
182.0,0.3653358
183.0,0.3664199
184.0,0.3675535
185.0,0.3687749
186.0,0.3699901
187.0,0.3711459
188.0,0.372398
189.0,0.3736122
190.0,0.3745022
191.0,0.3748538
192.0,0.3742521
193.0,0.3722567
194.0,0.3688296
195.0,0.3642564
196.0,0.3589653
197.0,0.3538446
198.0,0.3492056
199.0,0.3453166
200.0,0.3423347
201.0,0.3399634
202.0,0.3381151
203.0,0.3366685
204.0,0.3353921
205.0,0.3343027
206.0,0.3335184
207.0,0.3330272
208.0,0.3326884
209.0,0.3324153
210.0,0.3322527
211.0,0.3321936
212.0,0.3322026
213.0,0.3322658
214.0,0.3323436
215.0,0.3324734
216.0,0.3325925
217.0,0.332677
218.0,0.3328405
219.0,0.3330668
220.0,0.3332561
221.0,0.3334306
222.0,0.3336556
223.0,0.3338979
224.0,0.3340836
225.0,0.3342442
226.0,0.3344525
227.0,0.3346686
228.0,0.3349011
229.0,0.335143
230.0,0.3353415
231.0,0.3355309
232.0,0.3357157
233.0,0.3359065
234.0,0.3361122
235.0,0.3362979
236.0,0.3364451
237.0,0.3366042
238.0,0.3368184
239.0,0.3370277
240.0,0.3372136
241.0,0.3373654
242.0,0.3374798
243.0,0.3376104
244.0,0.337775
245.0,0.3379601
246.0,0.3381293
247.0,0.338248
248.0,0.338381
249.0,0.3385437
250.0,0.3386849
251.0,0.338813
252.0,0.3389128
253.0,0.3390093
254.0,0.3391378
255.0,0.3392515
256.0,0.3393378
257.0,0.3394514
258.0,0.3395903
259.0,0.3397236
260.0,0.339869
261.0,0.3400244
262.0,0.3401696
263.0,0.3402697
264.0,0.340358
265.0,0.3404894
266.0,0.340645
267.0,0.3407965
268.0,0.3409249
269.0,0.3410819
270.0,0.3412438
271.0,0.3413806
272.0,0.3415456
273.0,0.3416965
274.0,0.3418616
275.0,0.3420498
276.0,0.3422022
277.0,0.3423543
278.0,0.3425472
279.0,0.3427522
280.0,0.3429369
281.0,0.3431291
282.0,0.3433221
283.0,0.343508
284.0,0.3436864
285.0,0.3438734
286.0,0.3440888
287.0,0.344267
288.0,0.3444086
289.0,0.344572
290.0,0.344767
291.0,0.3449853
292.0,0.345165
293.0,0.3453147
294.0,0.3455366
295.0,0.3457779
296.0,0.3459473
297.0,0.346109
298.0,0.3462987
299.0,0.346488
300.0,0.3466814
301.0,0.3468909
302.0,0.3470988
303.0,0.3472977
304.0,0.3475285
305.0,0.3477691
306.0,0.3479623
307.0,0.3481237
308.0,0.3483112
309.0,0.3485056
310.0,0.348674
311.0,0.3488927
312.0,0.3491394
313.0,0.3493561
314.0,0.3495708
315.0,0.349772
316.0,0.3499663
317.0,0.3501669
318.0,0.3503777
319.0,0.3506269
320.0,0.3508818
321.0,0.3510677
322.0,0.3512123
323.0,0.351421
324.0,0.3516527
325.0,0.3518531
326.0,0.3520797
327.0,0.3523185
328.0,0.3525428
329.0,0.3527567
330.0,0.3529527
331.0,0.3531641
332.0,0.3534063
333.0,0.3536471
334.0,0.3538674
335.0,0.3540743
336.0,0.3542882
337.0,0.3545017
338.0,0.3547268
339.0,0.3549784
340.0,0.3552088
341.0,0.355425
342.0,0.3556756
343.0,0.3558958
344.0,0.3560499
345.0,0.3562313
346.0,0.3564506
347.0,0.356686
348.0,0.3569433
349.0,0.3571668
350.0,0.35738
351.0,0.3576271
352.0,0.3578736
353.0,0.3581156
354.0,0.3583601
355.0,0.3586033
356.0,0.3588829
357.0,0.3591728
358.0,0.3594348
359.0,0.3596744
360.0,0.3598695
361.0,0.3600337
362.0,0.3602292
363.0,0.3605313
364.0,0.3608644
365.0,0.3611465
366.0,0.3614112
367.0,0.3616528
368.0,0.3618785
369.0,0.3621336
370.0,0.3624038
371.0,0.3626678
372.0,0.362974
373.0,0.3632817
374.0,0.3635177
375.0,0.3637527
376.0,0.3640315
377.0,0.3643298
378.0,0.3646447
379.0,0.3649492
380.0,0.3652787
381.0,0.365573
382.0,0.3658301
383.0,0.366154
384.0,0.3664472
385.0,0.366712
386.0,0.3670289
387.0,0.3673716
388.0,0.3676988
389.0,0.3680036
390.0,0.3683271
391.0,0.3686562
392.0,0.3689741
393.0,0.3693054
394.0,0.3696244
395.0,0.3699625
396.0,0.370323
397.0,0.370582
398.0,0.3708095
399.0,0.3711275
400.0,0.3714164
401.0,0.3716297
402.0,0.3718931
403.0,0.3722145
404.0,0.3724948
405.0,0.3727777
406.0,0.3730843
407.0,0.3734215
408.0,0.3738151
409.0,0.37417
410.0,0.3745441
411.0,0.3749247
412.0,0.375132
413.0,0.3752726
414.0,0.3756929
415.0,0.3763525
416.0,0.3768845
417.0,0.3773237
418.0,0.3778193
419.0,0.3783043
420.0,0.3787964
421.0,0.3793821
422.0,0.3799807
423.0,0.3805298
424.0,0.3811297
425.0,0.3818283
426.0,0.3826034
427.0,0.3836567
428.0,0.3851102
429.0,0.3861665
430.0,0.3861471
431.0,0.3855506
432.0,0.3849103
433.0,0.3843733
434.0,0.3839085
435.0,0.3833621
436.0,0.3827811
437.0,0.3821958
438.0,0.3815599
439.0,0.3809866
440.0,0.380495
441.0,0.379992
442.0,0.37949
443.0,0.3789407
444.0,0.3783969
445.0,0.3779822
446.0,0.3776088
447.0,0.3772857
448.0,0.3770714
449.0,0.3768642
450.0,0.37668
451.0,0.3766347
452.0,0.3766648
453.0,0.3766397
454.0,0.3765866
455.0,0.3765672
456.0,0.3765669
457.0,0.3766211
458.0,0.3767805
459.0,0.3769453
460.0,0.3770113
461.0,0.3770691
462.0,0.3772552
463.0,0.3774552
464.0,0.3775248
465.0,0.3777297
466.0,0.3780715
467.0,0.3783178
468.0,0.3785006
469.0,0.3786261
470.0,0.3787584
471.0,0.3789288
472.0,0.3791337
473.0,0.3793785
474.0,0.379615
475.0,0.3797684
476.0,0.3799107
477.0,0.3801076
478.0,0.3802693
479.0,0.3804586
480.0,0.3806749
481.0,0.3808886
482.0,0.3811162
483.0,0.3812664
484.0,0.3813613
485.0,0.381509
486.0,0.3818045
487.0,0.3821466
488.0,0.3823878
489.0,0.3825848
490.0,0.3827857
491.0,0.382996
492.0,0.3831781
493.0,0.3832877
494.0,0.3834265
495.0,0.383674
496.0,0.3839131
497.0,0.3840884
498.0,0.3843066
499.0,0.3845693
500.0,0.3847727
501.0,0.3849823
502.0,0.3851942
503.0,0.3853825
504.0,0.3856457
505.0,0.3859169
506.0,0.3861407
507.0,0.3863324
508.0,0.3864655
509.0,0.3866386
510.0,0.3869751
511.0,0.3872533
512.0,0.387388
513.0,0.3876046
514.0,0.3878502
515.0,0.3880428
516.0,0.3882979
517.0,0.3885797
518.0,0.3887777
519.0,0.3889736
520.0,0.3892207
521.0,0.3894569
522.0,0.3896501
523.0,0.3898729
524.0,0.3902462
525.0,0.3905228
526.0,0.3905937
527.0,0.3907223
528.0,0.3909431
529.0,0.3912348
530.0,0.3915203
531.0,0.3917753
532.0,0.3919731
533.0,0.3921434
534.0,0.3923772
535.0,0.3925992
536.0,0.3928867
537.0,0.3932028
538.0,0.393437
539.0,0.3936332
540.0,0.3938237
541.0,0.3940233
542.0,0.3942225
543.0,0.3944451
544.0,0.3946483
545.0,0.3948883
546.0,0.3952074
547.0,0.395488
548.0,0.395773
549.0,0.3960782
550.0,0.3962649
551.0,0.3964649
552.0,0.3967743
553.0,0.396966
554.0,0.397127
555.0,0.3972993
556.0,0.3974391
557.0,0.3977601
558.0,0.398141
559.0,0.3983532
560.0,0.3984683
561.0,0.3985968
562.0,0.3987902
563.0,0.3991109
564.0,0.3994431
565.0,0.3996316
566.0,0.3998281
567.0,0.4000992
568.0,0.4004446
569.0,0.400792
570.0,0.4009798
571.0,0.4011775
572.0,0.401489
573.0,0.4017111
574.0,0.4017835
575.0,0.4019969
576.0,0.4023244
577.0,0.4025691
578.0,0.4028415
579.0,0.403071
580.0,0.4032499
581.0,0.4035139
582.0,0.4037053
583.0,0.4038387
584.0,0.4041226
585.0,0.4044629
586.0,0.4047594
587.0,0.404929
588.0,0.4050909
589.0,0.405421
590.0,0.4056877
591.0,0.4058154
592.0,0.4059739
593.0,0.4062151
594.0,0.4065014
595.0,0.4067159
596.0,0.4067973
597.0,0.4069842
598.0,0.4073425
599.0,0.407593
600.0,0.4077587
601.0,0.4078973
602.0,0.4081157
603.0,0.4085689
604.0,0.4088708
605.0,0.4088603
606.0,0.4089281
607.0,0.409224
608.0,0.4095572
609.0,0.4099223
610.0,0.4102367
611.0,0.4103706
612.0,0.4105827
613.0,0.4109758
614.0,0.4112453
615.0,0.4112651
616.0,0.4113649
617.0,0.4117604
618.0,0.4122147
619.0,0.4125123
620.0,0.4126485
621.0,0.4126812
622.0,0.4128657
623.0,0.4132207
624.0,0.4135315
625.0,0.4137015
626.0,0.4138061
627.0,0.4140631
628.0,0.4141952
629.0,0.414232
630.0,0.4145679
631.0,0.4147816
632.0,0.4148337
633.0,0.4150493
634.0,0.4153135
635.0,0.4156151
636.0,0.4158892
637.0,0.4160827
638.0,0.4163208
639.0,0.416491
640.0,0.4166465
641.0,0.4169627
642.0,0.4170582
643.0,0.4170347
644.0,0.4173456
645.0,0.4177139
646.0,0.4178487
647.0,0.4179687
648.0,0.4182308
649.0,0.4184444
650.0,0.4185935
651.0,0.4187772
652.0,0.4189508
653.0,0.4192564
654.0,0.4195903
655.0,0.4197499
656.0,0.4199229
657.0,0.4200093
658.0,0.4200147
659.0,0.4202247
660.0,0.4204172
661.0,0.4205008
662.0,0.4208393
663.0,0.4212308
664.0,0.4213063
665.0,0.4214717
666.0,0.4219669
667.0,0.4222347
668.0,0.4221487
669.0,0.4222433
670.0,0.422624
671.0,0.4229162
672.0,0.4229014
673.0,0.4228489
674.0,0.4230158
675.0,0.4233368
676.0,0.4235752
677.0,0.4237006
678.0,0.4238414
679.0,0.4241036
680.0,0.4244619
681.0,0.4246053
682.0,0.4246977
683.0,0.4249592
684.0,0.4251671
685.0,0.4252891
686.0,0.4254459
687.0,0.4257618
688.0,0.4259751
689.0,0.4259695
690.0,0.4261446
691.0,0.4263734
692.0,0.4265903
693.0,0.4269314
694.0,0.427119
695.0,0.4271744
696.0,0.4272915
697.0,0.4275275
698.0,0.4278001
699.0,0.427983
700.0,0.4281015
701.0,0.4281543
702.0,0.428223
703.0,0.4285508
704.0,0.4289645
705.0,0.429024
706.0,0.4290864
707.0,0.4292653
708.0,0.429183
709.0,0.4292632
710.0,0.4298001
711.0,0.4302125
712.0,0.4302099
713.0,0.4302914
714.0,0.4307747
715.0,0.4311506
716.0,0.4310294
717.0,0.4308524
718.0,0.4311071
719.0,0.4316126
720.0,0.4317502
721.0,0.4316907
722.0,0.4319663
723.0,0.4324952
724.0,0.4328537
725.0,0.4328096
726.0,0.4326681
727.0,0.4326094
728.0,0.4328251
729.0,0.4333602
730.0,0.4334292
731.0,0.433245
732.0,0.4334646
733.0,0.433754
734.0,0.433982
735.0,0.4340887
736.0,0.4341194
737.0,0.4342678
738.0,0.4345202
739.0,0.4346181
740.0,0.4346532
741.0,0.4351258
742.0,0.435612
743.0,0.4355842
744.0,0.435471
745.0,0.4355439
746.0,0.435855
747.0,0.4362614
748.0,0.4363073
749.0,0.4363103
750.0,0.4367054
751.0,0.4369625
752.0,0.4367794
753.0,0.4368235
754.0,0.4371451
755.0,0.4373349
756.0,0.4374995
757.0,0.4376332
758.0,0.4376866
759.0,0.4378419
760.0,0.4382385
761.0,0.4386114
762.0,0.4386761
763.0,0.4386292
764.0,0.4388325
765.0,0.4389238
766.0,0.4388181
767.0,0.4391592
768.0,0.4394514
769.0,0.4393981
770.0,0.4395877
771.0,0.4399743
772.0,0.4402008
773.0,0.4402677
774.0,0.4403405
775.0,0.4403306
776.0,0.4407291
777.0,0.4415037
778.0,0.441526
779.0,0.4411535
780.0,0.4411476
781.0,0.441559
782.0,0.4420601
783.0,0.4418679
784.0,0.4416679
785.0,0.4421001
786.0,0.4426027
787.0,0.4428644
788.0,0.4427007
789.0,0.4427919
790.0,0.443302
791.0,0.4433297
792.0,0.4432093
793.0,0.4432627
794.0,0.4431564
795.0,0.4430447
796.0,0.443532
797.0,0.4444432
798.0,0.4446019
799.0,0.4441108
800.0,0.4439119
801.0,0.4438629
802.0,0.4438924
803.0,0.4445364
804.0,0.4451549
805.0,0.4453403
806.0,0.4457012
807.0,0.4461989
808.0,0.4461828
809.0,0.4456413
810.0,0.0
811.0,0.0
